-0.11
-0.09
-0.04
0.04
0.17
0.32
0.44
0.48
0.48
0.46
0.47
0.56
0.68
0.82
0.94
1.03
1.05
0.96
0.74
0.45
0.22
0.04
-0.03
-0.03
-0.03
-0.04
-0.07
-0.1
-0.09
-0.07
-0.11
-0.17
-0.23
-0.3
-0.33
-0.3
-0.25
-0.21
-0.17
-0.24
-0.44
-0.82
-1.22
-1.38
-1.21
-0.88
-0.48
0.31
2.2
5.99
11.2
16.51
20.39
20.96
18.24
12.94
7.3
2.6
-0.33
-1.77
-2.13
-1.73
-1.02
-0.32
0.13
0.29
0.2
-0.02
-0.17
-0.27
-0.34
-0.31
-0.24
-0.17
-0.11
-0.09
-0.11
-0.09
-0.08
-0.08
-0.05
-0.07
-0.13
-0.16
-0.13
-0.06
0.05
0.14
0.17
0.18
0.16
0.15
0.17
0.2
0.24
0.31
0.35
0.39
0.41
0.41
0.42
0.43
0.43
0.5
0.57
0.61
0.66
0.71
0.78
0.85
0.9
0.92
0.94
0.98
1.02
1.09
1.2
1.28
1.34
1.4
1.42
1.46
1.51
1.53
1.57
1.64
1.71
1.79
1.86
1.89
1.87
1.83
1.75
1.65
1.61
1.59
1.54
1.45
1.31
1.12
0.97
0.85
0.74
0.66
0.56
0.4
0.23
0.06
-0.07
-0.13
-0.16
-0.17
-0.17
-0.22
-0.28
-0.31
-0.34
-0.37
-0.34
-0.32
-0.3
-0.3
-0.32
-0.31
-0.29
-0.28
-0.26
-0.21
-0.18
-0.17
-0.17
-0.19
-0.19
-0.19
-0.21
-0.22
-0.2
-0.17
-0.13
-0.11
-0.11
-0.16
-0.16
-0.16
-0.1
-0.03
-0.03
-0.06
-0.12
-0.2
-0.24
-0.24
-0.25
-0.23
-0.22
-0.24
-0.23
-0.21
-0.21
-0.19
-0.16
-0.13
-0.12
-0.12
-0.16
-0.19
-0.22
-0.24
-0.23
-0.23
-0.23
-0.22
-0.18
-0.12
-0.08
-0.08
-0.13
-0.21
-0.26
-0.29
-0.26
-0.19
-0.12
-0.09
-0.06
-0.04
-0.03
-0.02
-0.05
-0.08
-0.07
-0.07
-0.07
-0.02
0
0
0.03
0.05
0.03
0.05
0.05
0.04
0.05
0.02
-0.01
-0.03
-0.05
-0.03
0.01
0.05
0.08
0.07
0.05
0.06
0.08
0.09
0.11
0.11
0.09
0.1
0.12
0.13
0.15
0.17
0.18
0.23
0.27
0.25
0.21
0.18
0.11
0.07
0.08
0.11
0.18
0.25
0.3
0.31
0.29
0.25
0.2
0.2
0.23
0.27
0.29
0.27
0.22
0.2
0.25
0.38
0.55
0.7
0.81
0.87
0.9
0.96
1.04
1.11
1.19
1.26
1.32
1.39
1.43
1.41
1.29
1.1
0.87
0.66
0.52
0.46
0.46
0.46
0.44
0.43
0.39
0.35
0.3
0.26
0.23
0.22
0.21
0.22
0.23
0.24
0.25
0.23
0.06
-0.24
-0.62
-0.8
-0.65
-0.19
0.37
1.1
2.51
5.67
10.34
15.68
19.75
21.28
19.43
15.13
9.84
5.01
1.73
-0.28
-1.29
-1.43
-1.05
-0.37
0.21
0.56
0.65
0.57
0.43
0.37
0.36
0.35
0.38
0.42
0.45
0.45
0.43
0.39
0.35
0.39
0.43
0.47
0.5
0.51
0.54
0.57
0.59
0.61
0.63
0.62
0.64
0.64
0.67
0.69
0.72
0.76
0.84
0.91
0.96
1.01
1.05
1.08
1.15
1.25
1.33
1.38
1.44
1.45
1.48
1.51
1.54
1.6
1.68
1.74
1.81
1.89
1.93
1.95
1.98
2
2.04
2.11
2.2
2.3
2.38
2.43
2.44
2.42
2.37
2.33
2.29
2.25
2.25
2.25
2.27
2.28
2.22
2.08
1.89
1.7
1.5
1.34
1.22
1.1
1
0.91
0.79
0.66
0.55
0.42
0.32
0.28
0.26
0.28
0.31
0.3
0.28
0.25
0.21
0.21
0.2
0.18
0.19
0.18
0.19
0.24
0.3
0.33
0.36
0.35
0.32
0.29
0.26
0.28
0.31
0.3
0.26
0.21
0.19
0.15
0.17
0.21
0.21
0.21
0.21
0.2
0.22
0.23
0.19
0.14
0.09
0.03
0
0.02
0.01
0
-0.01
-0.04
-0.09
-0.06
-0.02
0.02
0.1
0.14
0.13
0.08
-0.02
-0.1
-0.12
-0.12
-0.13
-0.09
-0.06
-0.04
-0.01
-0.02
-0.05
-0.07
-0.11
-0.12
-0.07
-0.06
-0.02
0
-0.02
-0.01
-0.02
-0.01
0
0
-0.02
-0.04
-0.05
-0.07
-0.05
-0.02
0.03
0.03
0.01
0
-0.04
-0.06
-0.07
-0.05
0
0.04
0.06
0.09
0.1
0.11
0.11
0.08
0.05
0.03
0
0
0.04
0.07
0.09
0.06
0.03
0.06
0.09
0.13
0.14
0.11
0.03
-0.03
-0.08
-0.11
-0.08
-0.03
0.01
0.04
0.06
0.02
-0.03
-0.08
-0.1
-0.07
-0.04
-0.04
-0.03
-0.04
-0.05
-0.03
0.04
0.11
0.18
0.26
0.32
0.39
0.51
0.63
0.75
0.83
0.85
0.9
0.98
1.09
1.26
1.4
1.42
1.29
1.03
0.71
0.43
0.23
0.17
0.23
0.27
0.29
0.26
0.22
0
0
0
0
0
0
0
0
0
0
0
0
0
0
0
0
0
0
0
0
0
0
0
0
0
0
0
0
0
0
0
0
0
0
0
0
0
0
0
0
0
0
0
0
0
0
0
0
0
0
0
0
0
0
0
0
0
0
0
0
0
0
0
0
0
0
0
0
0
0
0
0
0
0
0
0
0
0
0
0
0
0
0
0
0
0
0
0
0
0
0
0
0
0
0
0
0
0
0
0
0
0
0
0
0
0
0
0
0
0
0
0
0
0
0
0
0
0
0
0
0
0
0
0
0
0
0
0
0
0
0
0
0
0
0
0
0
0
0
0
0
0
0
0
0
0
0
0
0
0
0
0
0
0
0
0
0
0
0
0
0
0
0
0
0
0
0
0
0
0
0
0
0
0
0
0
0
0
0
0
0
0
0
0
0
0
0
0
0
0
0
0
0
0
0
0
0
0
0
0
0
0
0
0
0
0
0
0
0
0
0
0
0
0
0
0
0
0
0
0
0
0
0
0
0
0
0
0
0
0
0
0
0
0
0
0
0
0
0
0
0
0
0
0
0
0
0
0
0
0
0
0
0
0
0
0
0
0
0
0
0
0
0
0
0
0
0
0
0
0
0
0
0
0
0
0
0
0
0
0
0
0
0
0
0
0
0
0
0
0
0
0
0
0
0
0
0
0
0
0
0
0
0
0
0
0
0
0
0
0
0
0
0
0
0
0
0
0
0
0
0
0
0
0
0
0
0
0
0
0
0
0
0
0
0
0
0
0
0
0
0
0
0
0
0
0
0
0
0
0
0
0
0
0
0
0
0
0
0
0
0
0
0
0
0
0
0
0
0
0
0
0
0
0
0
0
0
0
0
0
0
0
0
0
0
0
0
0
0
0
0
0
0
0
0
0
0
0
0
0
0
0
0
0
0
0
0
0
0
0
0
0
0
0
0
0
0
0
0
0
0
0
0
0
0
0
0
0
0
0
0
0
0
0
0
0
0
0
0
0
0
0
0
0
0
0
0
0
0
0
0
0
0
0
0
0
0
0
0
0
0
0
0
0
0
0
0
0
0
0
0
0
0
0
0
0
0
0
0
0
0
0
0
0
0
0
0
0
0
0
0
0
0
0
0
0
0
0
0
0
0
0
0
0
0
0
0
0
0
0
0
0
0
0
0
0
0
0
0
0
0
0
0
0
0
0
0
0
0
0
0
0
0
0
0
0
0
0
0
0
0
0
0
0
0
0
0
0
0
0
0
0
0
0
0
0
0
0
0
0
0
0
0
0
0
0
0
0
0
0
0
0
0
0
0
0
0
0
0
0
0
0
0
0
0
0
0
0
0
0
0
0
0
0
0
0
0
0
0
0
-4.24
-4.22
-4.17
-4.11
-3.99
-3.92
-3.86
-3.79
-3.79
-3.86
-3.93
-3.99
-4.05
-3.98
-3.85
-3.75
-3.72
-3.79
-3.95
-4.03
-4.08
-4.11
-4.14
-4.16
-4.11
-3.94
-3.7
-3.45
-3.26
-3.34
-3.58
-3.93
-4.25
-4.41
-4.45
-4.45
-4.47
-4.49
-4.58
-4.68
-4.71
-4.69
-4.6
-4.49
-4.45
-4.42
-4.39
-4.39
-4.36
-4.24
-4.1
-4
-4.04
-4.23
-4.48
-4.77
-4.81
-4.59
-4.23
-3.82
-3.12
-1.56
1.85
6.77
12.3
16.4
17.82
15.75
11.16
5.49
0.24
-3.35
-5.47
-6.26
-6.19
-5.71
-5.04
-4.61
-4.54
-4.67
-4.79
-4.91
-4.88
-4.8
-4.77
-4.7
-4.72
-4.91
-5.11
-5.26
-5.38
-5.4
-5.38
-5.36
-5.38
-5.47
-5.56
-5.5
-5.29
-5
-4.62
-4.29
-4.04
-3.83
-3.7
-3.6
-3.46
-3.41
-3.42
-3.55
-3.77
-3.95
-3.99
-3.96
-3.89
-3.74
-3.66
-3.65
-3.69
-3.75
-3.81
-3.78
-3.76
-3.73
-3.66
-3.69
-3.78
-3.84
-3.86
-3.83
-3.72
-3.67
-3.66
-3.64
-3.61
-3.55
-3.43
-3.32
-3.23
-3.16
-3.12
-3.09
-3.02
-2.92
-2.92
-2.97
-3.08
-3.24
-3.33
-3.35
-3.33
-3.27
-3.26
-3.35
-3.5
-3.65
-3.77
-3.86
-3.89
-3.95
-4.07
-4.19
-4.29
-4.33
-4.38
-4.49
-4.68
-4.9
-5.07
-5.14
-5.07
-4.95
-4.86
-4.94
-5.03
-5.03
-4.95
-4.85
-4.83
-4.93
-5.15
-5.41
-5.62
-5.67
-5.57
-5.55
-5.6
-5.77
-6.03
-6.25
-6.41
-6.5
-6.58
-6.7
-6.82
-6.91
-6.92
-6.83
-6.66
-6.47
-6.22
-6.03
-5.85
-5.66
-5.45
-5.2
-4.87
-4.55
-4.28
-4.06
-3.92
-3.83
-3.79
-3.77
-3.73
-3.7
-3.7
-3.71
-3.81
-3.98
-4.15
-4.36
-4.52
-4.56
-4.61
-4.68
-4.72
-4.77
-4.79
-4.78
-4.83
-4.91
-4.97
-5.01
-5.01
-4.97
-4.94
-4.96
-5.02
-5.09
-5.1
-5.1
-5.15
-5.19
-5.22
-5.23
-5.2
-5.07
-4.93
-4.78
-4.57
-4.37
-4.15
-3.9
-3.79
-3.76
-3.71
-3.56
-3.3
-2.91
-2.66
-2.61
-2.67
-2.97
-3.43
-3.77
-3.98
-4.04
-4.01
-4.05
-4.17
-4.34
-4.58
-4.78
-4.77
-4.62
-4.51
-4.51
-4.62
-4.83
-5.07
-5.24
-5.34
-5.4
-5.51
-5.73
-6.12
-6.58
-7.1
-7.69
-8.04
-7.96
-7.51
-6.87
-6.05
-4.97
-2.58
1.5
6.95
12.19
15.75
16.2
13.35
8.49
2.94
-1.4
-4.15
-5.39
-5.52
-4.9
-3.86
-3.01
-2.56
-2.54
-2.8
-3.06
-3.16
-3.14
-3.1
-3.1
-3.27
-3.52
-3.78
-3.92
-3.93
-3.78
-3.61
-3.5
-3.46
-3.51
-3.58
-3.72
-3.84
-3.86
-3.81
-3.74
-3.68
-3.72
-3.85
-4.04
-4.27
-4.36
-4.31
-4.21
-4.13
-4.1
-4.07
-4.05
-4.03
-4
-3.91
-3.83
-3.75
-3.67
-3.64
-3.59
-3.54
-3.42
-3.18
-2.99
-2.85
-2.83
-2.94
-3.04
-3.02
-2.83
-2.52
-2.24
-1.98
-1.81
-1.79
-1.83
-1.9
-1.93
-1.92
-1.98
-2.1
-2.14
-2.21
-2.24
-2.2
-2.28
-2.44
-2.69
-3.01
-3.26
-3.37
-3.49
-3.57
-3.67
-3.84
-3.99
-4.12
-4.27
-4.42
-4.62
-4.88
-5.23
-5.6
-5.96
-6.27
-6.41
-6.45
-6.37
-6.21
-6.03
-5.82
-5.61
-5.42
-5.22
-5.02
-4.8
-4.62
-4.43
-4.24
-4.06
-3.84
-3.58
-3.29
-2.98
-2.73
-2.53
-2.36
-2.26
-2.12
-1.89
-1.66
-1.41
-1.21
-1.15
-1.19
-1.33
-1.55
-1.77
-1.87
-1.89
-1.81
-1.71
-1.68
-1.76
-1.95
-2.16
-2.32
-2.35
-2.26
-2.13
-2
-1.87
-1.83
-1.94
-2.2
-2.55
-2.77
-2.83
-2.73
-2.54
-2.31
-2.21
-2.21
-2.18
-2.06
-1.9
-1.67
-1.35
-1.07
-0.8
-0.59
-0.45
-0.4
-0.4
-0.31
-0.11
0.15
0.36
0.48
0.42
0.19
-0.09
-0.28
-0.29
-0.25
-0.26
-0.26
-0.28
-0.31
-0.36
-0.39
-0.43
-0.51
-0.61
-0.62
-0.48
-0.29
-0.12
-0.08
-0.17
-0.35
-0.56
-0.74
-0.86
-0.94
-0.99
-1.1
-1.27
-1.49
-1.69
-1.83
-1.87
-1.75
-1.55
-1.32
-1.15
-1.08
-1.06
-1.06
-0.99
-0.85
-0.68
-0.46
-0.2
0.02
0.15
0.24
0.29
0.37
0.54
0.72
0.82
0.81
0.69
0.65
0.71
0.85
1.25
2.4
5.13
9.7
15.08
20.02
22.23
21.16
16.93
11.32
5.8
1.74
-0.69
-1.9
-2.06
-1.78
-1.32
-0.9
-0.75
-0.85
-1.03
-1.18
-1.27
-1.25
-1.21
-1.19
-1.1
-0.99
-0.86
-0.66
-0.41
-0.18
-0.03
0.03
0.11
0.29
0.55
0.85
1.14
1.28
1.27
1.17
1.12
1.17
1.34
1.46
1.53
1.45
1.13
0.74
0.54
0.59
0.85
1.23
1.35
1.18
0.78
0.38
0.18
0.28
0.42
0.43
0.32
0.06
-0.24
-0.46
-0.59
-0.66
-0.67
-0.69
-0.72
-0.73
-0.78
-0.83
-0.76
-0.64
-0.45
-0.22
-0.04
0.08
0.19
0.28
0.38
0.52
0.67
0.84
1.02
1.2
1.25
1.15
0.99
0.8
0.72
0.73
0.8
0.94
1.13
1.31
1.53
1.72
1.77
1.66
1.4
1.06
0.73
0.49
0.29
0.11
-0.1
-0.32
-0.51
-0.67
-0.74
-0.78
-0.78
-0.8
-0.87
-1
-1.16
-1.31
-1.48
-1.63
-1.75
-1.88
-2.02
-2.14
-2.22
-2.18
-2.01
-1.83
-1.69
-1.57
-1.59
-1.64
-1.56
-1.31
-0.97
-0.65
-0.53
-0.52
-0.54
-0.45
-0.2
0.16
0.46
0.61
0.61
0.49
0.32
0.16
-0.08
-0.4
-0.67
-0.82
-0.85
-0.73
-0.74
-0.86
-1.08
-1.29
-1.44
-1.48
-1.54
-1.71
-2.09
-2.61
-3.15
-3.56
-3.76
-3.81
-3.76
-3.64
-3.55
-3.5
-3.41
-3.27
-3.1
-2.91
-2.76
-2.6
-2.48
-2.41
-2.34
-2.3
-2.26
-2.09
-1.81
-1.47
-1.1
-0.87
-0.77
-0.66
-0.58
-0.48
-0.26
-0.02
0.25
0.61
0.9
1.11
1.22
1.13
0.91
0.63
0.4
0.21
0.04
-0.14
-0.35
-0.51
-0.6
-0.63
-0.56
-0.45
-0.35
-0.24
-0.17
-0.15
-0.18
-0.29
-0.53
-0.91
-1.38
-1.85
-2.2
-2.39
-2.48
-2.48
-2.44
-2.42
-2.44
-2.34
-2.12
-1.86
-1.63
-1.48
-1.4
-1.25
-0.99
-0.64
-0.32
-0.06
-0.01
-0.16
-0.49
-0.97
-1.38
-1.54
-1.26
-0.82
-0.39
-0.02
1.04
3.71
8.38
13.75
18.42
20.65
19.25
15.02
9.14
3.82
-0.03
-2.16
-3.07
-3.12
-2.74
-2.47
-2.41
-2.57
-2.75
-2.87
-2.84
-2.73
-2.62
-2.54
-2.43
-2.33
-2.15
-2.02
-1.94
-1.84
-1.72
-1.56
-1.3
-0.92
-0.43
0.15
0.57
0.8
0.87
0.83
0.82
0.93
1.06
1.14
1.06
0.81
0.53
0.27
0.14
0.17
0.29
0.36
0.38
0.34
0.17
-0.04
-0.2
-0.28
-0.22
-0.09
-0.01
0.01
-0.01
-0.14
-0.22
-0.2
-0.22
-0.2
-0.08
0.05
0.19
0.38
0.58
0.74
0.84
0.91
0.97
1.04
1.04
0.99
1
1.04
1.11
1.12
1.07
1.08
1.16
1.33
1.5
1.53
1.37
1.1
0.82
0.7
0.73
0.76
0.66
0.4
0.11
-0.08
-0.17
-0.14
-0.19
-0.31
-0.47
-0.66
-0.82
-0.93
-1.04
-1
-0.69
-0.33
-0.03
0.05
-0.22
-0.64
-1
-1.09
-0.86
-0.46
-0.24
-0.23
-0.39
-0.56
-0.68
-0.69
-0.64
-0.53
-0.41
-0.3
-0.2
-0.15
-0.16
-0.15
-0.11
0.04
0.24
0.4
0.49
0.49
0.39
0.4
0.45
0.53
0.55
0.47
0.34
0.2
0.19
0.35
0.51
0.53
0.33
-0.07
-0.45
-0.63
-0.55
-0.24
0.01
0.01
-0.17
-0.44
-0.68
-0.77
-0.64
-0.47
-0.32
-0.25
-0.26
-0.28
-0.31
-0.33
-0.33
-0.25
-0.18
-0.17
-0.18
-0.19
-0.22
-0.23
-0.28
-0.41
-0.59
-0.87
-1.19
-1.37
-1.34
-1.16
-0.81
-0.55
-0.39
-0.34
-0.41
-0.48
-0.39
-0.3
-0.18
-0.03
0.04
0.1
0.14
0.12
0.17
0.28
0.3
0.24
0.01
-0.53
-1.19
-1.81
-2.3
-2.61
-2.86
-3.19
-3.53
-3.84
-4.06
-4.03
-3.76
-3.4
-2.91
-2.37
-1.82
-1.32
-0.96
-0.78
-0.74
-0.79
-0.82
-0.74
-0.56
-0.37
-0.24
-0.13
-0.08
-0.07
0.03
0.18
0.33
0.5
0.6
0.65
0.75
0.88
1.03
1.17
1.14
0.97
0.71
0.41
0.15
0.01
0.09
0.36
0.65
0.98
1.69
3.34
6.9
11.93
17.46
21.48
22.74
20.36
15.42
9.43
3.89
0.19
-1.88
-2.49
-2.12
-1.27
-0.42
0.03
0.18
0.08
-0.1
-0.21
-0.16
-0.11
-0.03
0.05
0.09
0.21
0.33
0.41
0.5
0.6
0.72
0.88
1.06
1.19
1.27
1.29
1.19
1.01
0.89
0.98
1.23
1.64
2.05
2.28
2.31
2.07
1.7
1.52
1.57
1.75
2.04
2.19
2.04
1.65
1.18
0.75
0.44
0.31
0.27
0.35
0.45
0.53
0.64
0.8
1.01
1.2
1.44
1.66
1.7
1.69
1.65
1.53
1.45
1.45
1.58
1.89
2.28
2.61
3.01
3.32
3.48
3.51
3.48
3.38
3.16
2.94
2.81
2.72
2.64
2.61
2.6
2.63
2.63
2.52
2.37
2.23
2
1.77
1.63
1.47
1.23
0.87
0.43
0.04
-0.23
-0.37
-0.37
-0.26
-0.17
-0.13
-0.15
-0.18
-0.15
-0.13
-0.11
-0.13
-0.16
-0.17
-0.19
-0.23
-0.15
0.02
0.28
0.62
0.98
1.26
1.35
1.27
1.16
1.12
1.18
1.35
1.53
1.7
1.8
1.81
1.82
1.91
2.02
2.13
2.17
2.01
1.71
1.27
0.79
0.41
0.15
-0.08
-0.34
-0.74
-1.17
-1.5
-1.71
-1.81
-1.8
-1.71
-1.65
-1.6
-1.49
-1.24
-1.02
-0.92
-0.92
-0.98
-1.01
-0.97
-0.92
-0.83
-0.73
-0.7
-0.61
-0.42
-0.21
0.01
0.24
0.37
0.41
0.37
0.29
0.24
0.27
0.43
0.72
0.94
1
0.88
0.61
0.37
0.12
-0.03
-0.03
0.02
0.04
-0.01
-0.21
-0.53
-0.89
-1.21
-1.34
-1.32
-1.21
-1.09
-0.95
-0.83
-0.75
-0.62
-0.48
-0.46
-0.5
-0.52
-0.49
-0.4
-0.24
-0.11
0.02
0.2
0.49
0.89
1.32
1.59
1.64
1.52
1.38
1.41
1.77
2.27
2.8
3.23
3.32
3.06
2.52
1.89
1.4
1.12
0.92
0.74
0.51
0.23
0.02
-0.06
-0.02
0.05
0.01
-0.12
-0.27
-0.38
-0.35
-0.24
-0.17
-0.15
-0.19
-0.3
-0.45
-0.69
-0.99
-1.07
-0.85
-0.34
0.22
0.94
2.11
4.87
9.28
14.76
19.46
22
21.18
17.52
12.41
7.19
3.56
1.49
0.59
0.51
1.04
1.8
2.42
2.8
2.89
2.7
2.29
1.73
1.3
1.07
0.94
0.92
1
1.07
0.95
0.76
0.57
0.4
0.3
0.27
0.31
0.36
0.32
0.05
-0.39
-0.93
-1.39
-1.66
-1.71
-1.63
-1.48
-1.29
-1.17
-1.11
-1.06
-1.04
-1.02
-1.02
-0.94
-0.72
-0.38
-0.09
0.14
0.35
0.5
0.64
0.79
0.95
1.2
1.47
1.65
1.81
1.96
2.08
2.24
2.49
2.79
3.08
3.21
3.19
3.05
2.88
2.73
2.56
2.37
2.14
1.82
1.42
1.09
0.82
0.69
0.7
0.77
0.8
0.77
0.67
0.51
0.33
0.19
0.09
0.07
0.07
0.07
0.04
0.05
0.06
0.11
0.2
0.27
0.34
0.39
0.42
0.49
0.5
0.42
0.31
0.26
0.4
0.78
1.26
1.81
2.15
2.21
2.1
1.84
1.58
1.44
1.31
1.19
1.04
0.68
0.16
-0.45
-1.03
-1.49
-1.88
-2.23
-2.55
-2.84
-3
-3.12
-3.17
-3.16
-3.14
-3.12
-3
-2.78
-2.5
-2.32
-2.24
-2.14
-1.99
-1.79
-1.61
-1.46
-1.31
-1.17
-1.1
-1.03
-0.92
-0.79
-0.65
-0.55
-0.52
-0.54
-0.61
-0.63
-0.51
-0.24
0.06
0.33
0.4
0.25
0.04
-0.13
-0.09
0.15
0.5
0.71
0.76
0.63
0.4
0.32
0.43
0.58
0.76
0.79
0.66
0.47
0.27
0.12
0.09
0.12
0.06
0
-0.13
-0.29
-0.43
-0.55
-0.61
-0.64
-0.6
-0.56
-0.53
-0.47
-0.43
-0.43
-0.44
-0.49
-0.54
-0.6
-0.6
-0.56
-0.47
-0.42
-0.38
-0.35
-0.32
-0.26
-0.14
0
0.14
0.24
0.28
0.29
0.33
0.36
0.38
0.48
0.6
0.75
0.92
1.05
1.12
1.09
0.92
0.66
0.39
0.19
0.12
0.15
0.2
0.24
0.21
0.12
0.02
-0.07
-0.09
-0.05
0.02
0.06
0.05
-0.05
-0.2
-0.34
-0.44
-0.46
-0.46
-0.58
-0.87
-1.24
-1.48
-1.33
-0.97
-0.44
0.54
2.51
6.24
11.38
16.67
20.67
21.45
18.95
13.81
8.12
3.26
0.14
-1.47
-1.96
-1.65
-1.07
-0.49
-0.07
0.07
0.01
-0.15
-0.25
-0.3
-0.28
-0.25
-0.18
-0.06
0.02
0.07
0.07
0.05
0.03
0.02
0.01
0
0
0.02
0.09
0.16
0.25
0.31
0.33
0.34
0.34
0.37
0.43
0.52
0.61
0.7
0.77
0.86
0.98
1.08
1.12
1.12
1.11
1.1
1.12
1.15
1.18
1.16
1.09
1.04
1.08
1.19
1.33
1.44
1.55
1.65
1.73
1.84
1.94
2.06
2.16
2.23
2.28
2.32
2.36
2.4
2.44
2.47
2.48
2.46
2.43
2.38
2.36
2.31
2.25
2.17
2.03
1.89
1.76
1.66
1.54
1.42
1.27
1.15
1.07
0.99
0.94
0.89
0.82
0.74
0.67
0.64
0.66
0.67
0.67
0.67
0.67
0.68
0.72
0.75
0.78
0.81
0.83
0.85
0.89
0.93
0.96
0.97
0.96
0.98
0.99
1.01
1.03
1.01
0.98
0.96
0.91
0.87
0.84
0.84
0.89
0.99
1.14
1.32
1.51
1.65
1.82
2.03
2.22
2.4
2.57
2.72
2.84
2.99
3.12
3.27
3.44
3.57
3.69
3.79
3.85
3.9
3.96
3.98
4
4.01
4.04
4.07
4.08
4.09
4.1
4.13
4.15
4.19
4.21
4.17
4.11
4.06
4.02
4.05
4.14
4.18
4.2
4.18
4.1
4.02
3.99
3.99
4.03
4.05
4.05
4.02
3.99
3.92
3.88
3.84
3.79
3.77
3.79
3.8
3.79
3.73
3.63
3.52
3.4
3.29
3.23
3.17
3.11
3.07
3.06
3.04
3.03
3
2.93
2.86
2.77
2.71
2.66
2.62
2.6
2.57
2.52
2.47
2.42
2.39
2.39
2.38
2.39
2.37
2.31
2.22
2.13
2.11
2.16
2.27
2.43
2.53
2.56
2.53
2.42
2.28
2.14
1.94
1.7
1.52
1.35
1.26
1.22
1.19
1.16
1.1
1.03
0.92
0.82
0.7
0.58
0.5
0.47
0.43
0.37
0.33
0.28
0.18
-0.06
-0.45
-0.9
-1.22
-1.19
-0.91
-0.5
0.22
1.85
5.25
10.28
15.78
20.33
21.76
19.81
14.83
8.95
3.68
0.14
-1.74
-2.4
-2.14
-1.56
-0.94
-0.54
-0.41
-0.46
-0.64
-0.78
-0.86
-0.89
-0.87
-0.85
-0.83
-0.85
-0.91
-0.97
-1.02
-1.04
-1
-0.99
-1.02
-1.1
-1.16
-1.21
-1.27
-1.32
-1.34
-1.34
-1.27
-1.19
-1.15
-1.14
-1.18
-1.27
-1.32
-1.34
-1.31
-1.25
-1.2
-1.17
-1.16
-1.13
-1.17
-1.2
-1.21
-1.23
-1.23
-1.19
-1.16
-1.1
-1.03
-0.95
-0.88
-0.85
-0.86
-0.92
-0.96
-1
-1.05
-1.09
-1.14
-1.2
-1.25
-1.26
-1.25
-1.23
-1.22
-1.21
-1.19
-1.15
-1.1
-1.04
-1.06
-1.11
-1.23
-1.4
-1.56
-1.71
-1.83
-1.93
-2.05
-2.18
-2.32
-2.49
-2.63
-2.69
-2.75
-2.78
-2.8
-2.85
-2.91
-2.97
-3.02
-3.03
-3.01
-3
-3
-2.99
-2.97
-2.94
-2.89
-2.81
-2.73
-2.69
-2.68
-2.7
-2.72
-2.72
-2.74
-2.71
-2.65
-2.53
-2.48
-2.44
-2.44
-2.49
-2.51
-2.52
-2.49
-2.4
-2.3
-2.3
-2.35
-2.46
-2.59
-2.67
-2.69
-2.64
-2.55
-2.42
-2.36
-2.31
-2.29
-2.27
-2.28
-2.29
-2.31
-2.33
-2.35
-2.37
-2.39
-2.42
-2.43
-2.44
-2.42
-2.37
-2.32
-2.27
-2.26
-2.31
-2.37
-2.42
-2.44
-2.43
-2.38
-2.32
-2.3
-2.31
-2.34
-2.38
-2.37
-2.37
-2.35
-2.27
-2.18
-2.13
-2.07
-2.05
-2.06
-2.06
-2.05
-2.05
-2.06
-2.12
-2.18
-2.21
-2.22
-2.19
-2.13
-2.07
-2.05
-2.01
-1.96
-1.88
-1.82
-1.79
-1.81
-1.82
-1.8
-1.75
-1.72
-1.68
-1.66
-1.64
-1.54
-1.4
-1.23
-1.08
-1
-1.01
-1.03
-1.01
-0.94
-0.84
-0.76
-0.71
-0.68
-0.63
-0.54
-0.4
-0.24
-0.14
-0.12
-0.14
-0.12
-0.05
0.1
0.27
0.39
0.47
0.48
0.43
0.34
0.21
0.05
-0.07
-0.17
-0.19
-0.13
-0.05
-0.01
-0.03
-0.06
-0.07
-0.07
-0.05
-0.01
0.04
0.07
0.13
0.18
0.22
0.29
0.34
0.29
0.08
-0.28
-0.63
-0.77
-0.59
-0.29
0.14
0.94
3.17
7.19
12.82
18.21
21.85
22.23
19.1
13.86
7.98
3.49
0.7
-0.53
-0.71
-0.26
0.44
0.95
1.24
1.32
1.27
1.18
1.13
1.14
1.16
1.16
1.15
1.14
1.13
1.11
1.09
1.09
1.15
1.19
1.24
1.28
1.3
1.33
1.37
1.42
1.47
1.53
1.57
1.57
1.52
1.48
1.48
1.51
1.59
1.69
1.76
1.82
1.85
1.86
1.84
1.81
1.8
1.82
1.88
1.93
1.97
2.01
2.06
2.1
2.16
2.21
2.28
2.31
2.34
2.36
2.38
2.41
2.47
2.52
2.55
2.6
2.63
2.66
2.74
2.83
2.92
3
3.04
3.04
3.02
3.02
3.06
3.09
3.12
3.09
3.01
2.85
2.67
2.47
2.3
2.13
1.99
1.83
1.67
1.53
1.36
1.24
1.16
1.1
1.07
1.06
1.02
1.02
1.03
1
0.98
0.94
0.9
0.88
0.88
0.89
0.88
0.88
0.86
0.84
0.8
0.76
0.71
0.66
0.62
0.61
0.59
0.55
0.48
0.44
0.38
0.37
0.35
0.28
0.21
0.11
0.01
-0.01
-0.02
-0.05
-0.05
-0.08
-0.13
-0.18
-0.22
-0.27
-0.29
-0.29
-0.27
-0.26
-0.26
-0.3
-0.35
-0.39
-0.43
-0.44
-0.44
-0.45
-0.43
-0.42
-0.42
-0.4
-0.38
-0.36
-0.35
-0.35
-0.37
-0.38
-0.4
-0.41
-0.35
-0.33
-0.3
-0.26
-0.22
-0.21
-0.21
-0.21
-0.21
-0.21
-0.2
-0.17
-0.11
-0.05
-0.03
0.01
0.03
-0.01
-0.04
-0.06
-0.07
-0.02
0.06
0.12
0.17
0.18
0.15
0.12
0.08
0.05
0.03
0.05
0.09
0.14
0.18
0.21
0.23
0.23
0.23
0.24
0.22
0.19
0.16
0.14
0.14
0.17
0.19
0.2
0.22
0.22
0.22
0.24
0.25
0.28
0.31
0.36
0.4
0.45
0.46
0.42
0.42
0.48
0.59
0.73
0.85
0.91
0.9
0.81
0.68
0.52
0.35
0.18
0.07
0.03
0.06
0.06
0.04
-0.03
-0.14
-0.26
-0.36
-0.43
-0.48
-0.54
-0.56
-0.59
-0.65
-0.7
-0.75
-0.87
-1.14
-1.57
-2.09
-2.39
-2.4
-2.17
-1.9
-1.38
-0.08
3.08
7.77
13.16
17.16
18.57
16.56
12.05
6.59
1.69
-1.54
-3.39
-4.09
-4.03
-3.54
-2.93
-2.55
-2.39
-2.5
-2.68
-2.85
-2.94
-2.97
-3
-3.03
-3.03
-3.03
-3.02
-2.98
-2.93
-2.91
-2.93
-2.96
-2.98
-3.01
-3
-2.95
-2.86
-2.79
-2.76
-2.74
-2.74
-2.75
-2.74
-2.74
-2.71
-2.67
-2.6
-2.55
-2.5
-2.42
-2.36
-2.29
-2.25
-2.22
-2.19
-2.19
-2.15
-2.1
-2.05
-2.01
-1.99
-1.98
-1.95
-1.89
-1.83
-1.77
-1.69
-1.65
-1.61
-1.57
-1.52
-1.52
-1.47
-1.41
-1.36
-1.32
-1.29
-1.2
-1.1
-0.99
-0.84
-0.7
-0.6
-0.56
-0.59
-0.62
-0.64
-0.7
-0.75
-0.83
-0.92
-1.02
-1.13
-1.24
-1.36
-1.49
-1.62
-1.75
-1.85
-1.92
-1.98
-1.99
-1.99
-1.99
-1.96
-1.91
-1.87
-1.83
-1.8
-1.77
-1.74
-1.72
-1.71
-1.68
-1.65
-1.61
-1.56
-1.51
-1.47
-1.43
-1.38
-1.33
-1.29
-1.25
-1.24
-1.22
-1.2
-1.17
-1.16
-1.14
-1.13
-1.12
-1.08
-1.04
-1.01
-0.98
-0.97
-0.97
-0.97
-0.98
-0.95
-0.93
-0.93
-0.94
-0.95
-0.95
-0.94
-0.92
-0.87
-0.81
-0.78
-0.78
-0.78
-0.77
-0.76
-0.74
-0.71
-0.69
-0.65
-0.62
-0.57
-0.52
-0.48
-0.47
-0.47
-0.45
-0.43
-0.4
-0.36
-0.3
-0.26
-0.24
-0.26
-0.28
-0.27
-0.26
-0.23
-0.17
-0.11
-0.1
-0.09
-0.1
-0.1
-0.08
-0.07
-0.04
-0.01
0
-0.03
-0.04
-0.06
-0.05
-0.01
0.02
0.06
0.08
0.05
0.01
0
0
0.02
0.06
0.11
0.13
0.14
0.13
0.12
0.11
0.1
0.09
0.08
0.07
0.08
0.11
0.17
0.24
0.29
0.31
0.29
0.26
0.28
0.38
0.52
0.64
0.72
0.73
0.68
0.55
0.42
0.26
0.1
-0.05
-0.17
-0.24
-0.23
-0.21
-0.21
-0.19
-0.21
-0.21
-0.19
-0.18
-0.16
-0.15
-0.17
-0.2
-0.17
-0.13
-0.08
-0.12
-0.32
-0.71
-1.13
-1.35
-1.21
-0.89
-0.47
0.11
1.84
5.21
10.21
15.34
19.12
20.09
17.79
13.31
7.96
3.68
0.79
-0.78
-1.38
-1.32
-0.81
-0.22
0.22
0.45
0.46
0.33
0.22
0.24
0.28
0.32
0.34
0.32
0.28
0.25
0.27
0.33
0.43
0.52
0.55
0.57
0.58
0.6
0.64
0.71
0.77
0.8
0.81
0.78
0.78
0.8
0.88
0.97
1.05
1.11
1.16
1.19
1.22
1.24
1.24
1.26
1.3
1.37
1.44
1.51
1.58
1.59
1.62
1.64
1.68
1.73
1.79
1.85
1.94
2.02
2.08
2.11
2.14
2.18
2.23
2.29
2.37
2.47
2.56
2.64
2.73
2.81
2.91
2.98
3.02
3.02
3.03
3.01
3.02
3.01
2.95
2.86
2.74
2.59
2.47
2.33
2.18
2.05
1.93
1.84
1.78
1.71
1.63
1.52
1.43
1.36
1.33
1.32
1.33
1.34
1.37
1.38
1.36
1.37
1.37
1.36
1.37
1.37
1.37
1.34
1.35
1.35
1.41
1.44
1.46
1.47
1.47
1.45
1.44
1.41
1.36
1.32
1.26
1.19
1.16
1.12
1.08
1.08
1.06
1.06
1.07
1.05
0.98
0.94
0.88
0.84
0.83
0.83
0.81
0.79
0.77
0.74
0.73
0.71
0.65
0.63
0.62
0.61
0.61
0.63
0.66
0.69
0.71
0.71
0.71
0.71
0.72
0.74
0.75
0.77
0.78
0.78
0.78
0.81
0.83
0.85
0.85
0.84
0.83
0.84
0.86
0.87
0.89
0.91
0.92
0.94
0.97
0.98
0.95
0.92
0.89
0.88
0.89
0.92
0.96
1
1.01
0.97
0.96
0.95
0.95
0.98
1.02
1.04
1.01
0.98
0.96
0.97
0.99
1.03
1.1
1.18
1.28
1.33
1.34
1.33
1.3
1.26
1.32
1.49
1.68
1.85
1.95
1.93
1.85
1.72
1.54
1.36
1.22
1.12
1.07
1.09
1.16
1.21
1.22
1.19
1.15
1.13
1.12
1.1
1.1
1.12
1.15
1.16
1.15
1.15
1.13
1
0.71
0.35
0.06
0.09
0.36
0.71
1.2
2.32
4.91
9.23
14.34
18.98
21.09
20.18
16.33
11.31
6.51
3.04
0.94
-0.14
-0.32
0
0.61
1.19
1.52
1.62
1.52
1.4
1.34
1.34
1.36
1.38
1.39
1.43
1.47
1.51
1.57
1.64
1.7
1.75
1.8
1.83
1.87
1.91
1.91
1.95
1.97
1.99
2.02
2.1
2.2
2.3
2.38
2.43
2.49
2.52
2.53
2.56
2.61
2.64
2.69
2.76
2.81
2.88
2.94
3.01
3.08
3.16
3.23
3.31
3.39
3.49
3.59
3.71
3.79
3.86
3.9
3.94
4
4.05
4.14
4.25
4.34
4.44
4.55
4.62
4.7
4.75
4.8
4.86
4.91
4.97
5.01
5.01
4.99
4.95
4.87
4.8
4.71
4.58
4.45
4.29
4.17
4.09
4.02
3.92
3.85
3.75
3.67
3.6
3.54
3.53
3.55
3.59
3.62
3.64
3.67
3.69
3.7
3.73
3.78
3.82
3.83
3.83
3.82
3.8
3.8
3.82
3.85
3.87
3.88
3.87
3.87
3.89
3.92
3.95
4.01
4.02
4.03
4.03
4.01
4.03
4.05
4.05
4.05
4.02
3.97
3.93
3.89
3.88
3.89
3.9
3.88
3.86
3.85
3.87
3.89
3.93
3.98
4
4
3.97
3.95
3.92
3.9
3.93
3.95
3.96
3.95
3.92
3.91
3.91
3.92
3.96
3.99
4.01
4.03
4.05
4.06
4.06
4.07
4.08
4.09
4.11
4.12
4.13
4.14
4.13
4.17
4.21
4.26
4.27
4.29
4.29
4.26
4.25
4.23
4.22
4.2
4.21
4.2
4.23
4.24
4.24
4.23
4.22
4.2
4.21
4.26
4.31
4.38
4.47
4.55
4.61
4.64
4.64
4.6
4.6
4.62
4.71
4.88
5.04
5.17
5.27
5.29
5.23
5.14
4.95
4.76
4.6
4.5
4.48
4.51
4.51
4.51
4.49
4.46
4.46
4.48
4.49
4.47
4.43
4.42
4.43
4.47
4.53
4.57
4.56
4.39
4.04
3.58
3.26
3.33
3.66
4.08
4.59
5.77
8.48
12.85
17.91
22.42
24.35
23.27
19.29
14.29
9.64
6.3
4.29
3.29
3.12
3.45
4.03
4.57
4.89
4.95
4.81
4.66
4.58
4.57
4.55
4.54
4.52
4.53
4.53
4.56
4.59
4.65
4.65
4.66
4.67
4.68
4.73
4.76
4.82
4.87
4.88
4.88
4.88
4.92
4.97
5.01
5.03
5.04
5.07
5.09
5.1
5.13
5.13
5.13
5.19
5.28
5.37
5.46
5.49
5.47
5.45
5.43
5.48
5.51
5.54
5.56
5.6
5.64
5.67
5.7
5.73
5.77
5.81
5.89
5.99
6.07
6.13
6.15
6.17
6.21
6.27
6.34
6.42
6.49
6.52
6.53
6.48
6.42
6.35
6.25
6.14
6.02
5.84
5.67
5.49
5.31
5.12
4.94
4.78
4.66
4.59
4.53
4.46
4.42
4.33
4.26
4.21
4.17
4.17
4.17
4.18
4.18
4.18
4.18
4.14
4.11
4.07
4.04
4.01
3.97
3.91
3.84
3.75
3.69
3.68
3.72
3.76
3.77
3.72
3.66
3.61
3.57
3.59
3.63
3.64
3.63
3.61
3.58
3.56
3.56
3.54
3.51
3.47
3.42
3.41
3.41
3.41
3.44
3.44
3.41
3.38
3.37
3.35
3.35
3.34
3.32
3.29
3.25
3.2
3.17
3.15
3.11
3.09
3.11
3.1
3.12
3.13
3.12
3.1
3.07
3.03
3.03
3.02
3.04
3.03
2.98
2.94
2.9
2.87
2.89
2.92
2.95
2.95
2.91
2.88
2.87
2.9
2.92
2.92
2.86
2.82
2.77
2.74
2.78
2.81
2.87
2.97
3.04
3.07
3.09
3.05
2.98
2.95
2.96
3.03
3.16
3.29
3.38
3.43
3.43
3.34
3.18
2.96
2.72
2.52
2.38
2.32
2.35
2.4
2.4
2.37
2.3
2.25
2.22
2.18
2.15
2.13
2.1
2.06
2.03
1.99
2.01
2.04
1.95
1.69
1.26
0.82
0.68
0.81
1.12
1.56
2.45
4.63
8.5
13.37
18.15
20.77
20.53
17.26
12.51
7.63
3.87
1.5
0.19
-0.18
0.05
0.61
1.21
1.6
1.76
1.71
1.58
1.49
1.45
1.45
1.49
1.53
1.59
1.64
1.64
1.65
1.66
1.67
1.7
1.77
1.85
1.89
1.94
2
2.09
2.16
2.2
2.23
2.27
2.28
2.3
2.36
2.41
2.47
2.54
2.59
2.66
2.75
2.81
2.88
2.94
2.97
2.99
3.05
3.11
3.19
3.28
3.35
3.42
3.48
3.51
3.54
3.57
3.63
3.74
3.87
4.01
4.11
4.18
4.22
4.27
4.33
4.43
4.54
4.62
4.7
4.76
4.78
4.8
4.83
4.87
4.94
4.96
4.92
4.82
4.7
4.55
4.42
4.31
4.19
4.02
3.85
3.7
3.54
3.45
3.4
3.35
3.31
3.25
3.18
3.15
3.14
3.12
3.1
3.06
2.98
2.93
2.89
2.89
2.95
3.02
3.06
3.08
3.09
3.05
3.03
3.01
3.01
3.05
3.07
3.06
3.05
3.03
3.01
3.01
3.03
3.04
3.04
3.02
2.96
2.91
2.9
2.88
2.88
2.88
2.85
2.83
2.81
2.77
2.76
2.74
2.74
2.75
2.75
2.73
2.75
2.75
2.75
2.75
2.75
2.74
2.74
2.71
2.68
2.69
2.73
2.74
2.75
2.75
2.72
2.68
2.68
2.7
2.72
2.74
2.75
2.75
2.74
2.71
2.68
2.68
2.68
2.68
2.7
2.71
2.73
2.73
2.69
2.66
2.64
2.61
2.62
2.64
2.65
2.68
2.75
2.81
2.88
2.93
2.94
2.94
2.94
2.97
3.06
3.19
3.37
3.5
3.58
3.6
3.55
3.41
3.2
2.96
2.75
2.58
2.46
2.42
2.4
2.4
2.36
2.32
2.28
2.26
2.21
2.16
2.12
2.08
2.04
2.03
2.03
2.01
1.99
1.96
1.86
1.62
1.22
0.84
0.71
0.9
1.25
1.7
2.26
3.94
7.18
11.86
16.57
19.95
20.66
18.42
14.26
9.39
5.51
2.81
1.18
0.37
0.22
0.6
1.08
1.49
1.68
1.69
1.58
1.49
1.44
1.43
1.39
1.35
1.34
1.32
1.33
1.38
1.4
1.4
1.37
1.34
1.33
1.39
1.44
1.48
1.5
1.48
1.43
1.42
1.42
1.44
1.45
1.45
1.44
1.46
1.5
1.56
1.6
1.61
1.64
1.64
1.63
1.65
1.67
1.71
1.75
1.77
1.78
1.82
1.86
1.9
1.97
2.04
2.05
2.03
2
1.96
1.98
2.04
2.1
2.17
2.24
2.26
2.27
2.3
2.34
2.36
2.36
2.36
2.38
2.41
2.44
2.45
2.44
2.38
2.28
2.14
1.95
1.76
1.57
1.38
1.2
1.02
0.87
0.74
0.62
0.54
0.48
0.41
0.32
0.24
0.18
0.15
0.14
0.13
0.1
0.05
-0.01
-0.03
-0.01
0
-0.01
-0.02
-0.05
-0.08
-0.1
-0.12
-0.09
-0.07
-0.09
-0.09
-0.1
-0.12
-0.14
-0.17
-0.19
-0.18
-0.19
-0.2
-0.19
-0.23
-0.27
-0.31
-0.33
-0.35
-0.33
-0.34
-0.34
-0.33
-0.3
-0.29
-0.27
-0.28
-0.32
-0.34
-0.36
-0.37
-0.35
-0.36
-0.37
-0.4
-0.4
-0.4
-0.39
-0.37
-0.35
-0.34
-0.34
-0.33
-0.3
-0.28
-0.24
-0.22
-0.21
-0.21
-0.19
-0.23
-0.28
-0.32
-0.34
-0.34
-0.34
-0.3
-0.24
-0.19
-0.2
-0.21
-0.22
-0.22
-0.18
-0.11
-0.01
0.09
0.15
0.18
0.25
0.33
0.45
0.59
0.76
0.88
0.99
1.05
1.07
1.06
0.95
0.71
0.46
0.22
0.04
-0.03
-0.06
-0.07
-0.08
-0.14
-0.19
-0.2
-0.21
-0.21
-0.17
-0.15
-0.14
-0.14
-0.17
-0.17
-0.19
-0.18
-0.13
-0.16
-0.34
-0.69
-1.11
-1.35
-1.23
-0.93
-0.58
0.01
1.54
4.84
9.54
14.52
18.4
19.37
17.37
12.86
7.84
3.53
0.62
-1.04
-1.74
-1.71
-1.22
-0.65
-0.24
-0.07
-0.11
-0.3
-0.43
-0.48
-0.51
-0.49
-0.49
-0.5
-0.5
-0.5
-0.51
-0.48
-0.47
-0.49
-0.47
-0.48
-0.5
-0.52
-0.55
-0.56
-0.54
-0.53
-0.49
-0.46
-0.45
-0.42
-0.38
-0.34
-0.32
-0.31
-0.3
-0.27
-0.26
-0.24
-0.28
-0.3
-0.31
-0.27
-0.22
-0.16
-0.11
-0.09
-0.09
-0.06
-0.01
0.04
0.07
0.07
0.05
0.04
0.06
0.13
0.22
0.29
0.31
0.31
0.32
0.33
0.37
0.41
0.43
0.46
0.52
0.58
0.64
0.66
0.62
0.52
0.43
0.32
0.2
0.07
-0.06
-0.22
-0.38
-0.55
-0.73
-0.9
-1.04
-1.15
-1.21
-1.25
-1.34
-1.42
-1.52
-1.62
-1.68
-1.72
-1.73
-1.74
-1.75
-1.75
-1.74
-1.73
-1.72
-1.73
-1.75
-1.77
-1.77
-1.78
-1.81
-1.84
-1.89
-1.94
-1.98
-2.03
-2.08
-2.12
-2.15
-2.2
-2.24
-2.28
-2.34
-2.41
-2.46
-2.53
-2.55
-2.56
-2.57
-2.63
-2.7
-2.79
-2.87
-2.91
-2.91
-2.89
-2.89
-2.93
-2.98
-3.03
-3.06
-3.06
-3.05
-3.06
-3.07
-3.12
-3.17
-3.22
-3.25
-3.27
-3.27
-3.29
-3.31
-3.32
-3.35
-3.35
-3.36
-3.38
-3.4
-3.41
-3.44
-3.46
-3.46
-3.47
-3.48
-3.49
-3.51
-3.53
-3.53
-3.51
-3.48
-3.43
-3.38
-3.36
-3.36
-3.37
-3.34
-3.29
-3.2
-3.07
-2.94
-2.81
-2.74
-2.69
-2.67
-2.71
-2.9
-3.23
-3.61
-3.94
-4.18
-4.32
-4.34
-4.35
-4.38
-4.44
-4.54
-4.66
-4.76
-4.86
-4.98
-5.06
-5.12
-5.17
-5.22
-5.27
-5.32
-5.37
-5.37
-5.41
-5.62
-5.98
-6.41
-6.61
-6.48
-6.14
-5.7
-4.85
-2.87
0.87
5.8
10.97
14.27
14.76
12.06
7.47
2.48
-1.53
-4.05
-5.36
-5.7
-5.39
-4.72
-4.05
-3.6
-3.4
-3.44
-3.53
-3.62
-3.64
-3.66
-3.76
-3.93
-4.1
-4.21
-4.19
-4.1
-4.03
-3.96
-3.97
-4.04
-4.09
-4.12
-4.15
-4.21
-4.3
-4.35
-4.35
-4.26
-4.11
-4.01
-3.91
-3.85
-3.95
-4.06
-4.16
-4.31
-4.36
-4.27
-4.21
-4.13
-4.08
-4.19
-4.29
-4.35
-4.41
-4.37
-4.28
-4.22
-4.18
-4.2
-4.27
-4.39
-4.5
-4.51
-4.43
-4.3
-4.15
-4.06
-4.05
-4.06
-4.09
-4.15
-4.22
-4.3
-4.34
-4.32
-4.28
-4.24
-4.18
-4.19
-4.3
-4.47
-4.62
-4.78
-5.01
-5.3
-5.56
-5.73
-5.85
-6
-6.16
-6.37
-6.63
-6.97
-7.28
-7.49
-7.63
-7.82
-7.98
-8.08
-8.14
-8.1
-8.07
-8.04
-8
-8.14
-8.38
-8.58
-8.66
-8.66
-8.63
-8.67
-8.69
-8.72
-8.82
-8.94
-9.09
-9.26
-9.44
-9.54
-9.51
-9.43
-9.4
-9.5
-9.65
-9.72
-9.66
-9.58
-9.58
-9.68
-9.83
-10.01
-10.13
-10.2
-10.27
-10.41
-10.62
-10.79
-10.81
-10.73
-10.61
-10.52
-10.42
-10.38
-10.42
-10.41
-10.47
-10.64
-10.83
-10.93
-10.84
-10.71
-10.68
-10.74
-10.75
-10.82
-10.98
-11.04
-10.94
-10.66
-10.49
-10.48
-10.59
-10.69
-10.79
-10.76
-10.42
-9.98
-9.55
-9.24
-9.09
-8.95
-8.89
-8.95
-9.19
-9.57
-9.98
-10.25
-10.38
-10.38
-10.28
-10.35
-10.56
-10.88
-11.03
-10.99
-10.84
-10.69
-10.66
-10.69
-10.61
-10.5
-10.38
-10.16
-10.03
-10.17
-10.33
-10.59
-10.91
-11.12
-11.39
-11.47
-10.98
-10.26
-9.68
-8.97
-7.7
-5.06
-0.81
3.71
7.3
8.38
6.77
3.02
-1.13
-4.9
-7.64
-9.6
-11.15
-12.12
-12.29
-11.77
-10.84
-10.26
-10.04
-10.08
-10.41
-10.82
-10.99
-10.99
-10.86
-10.64
-10.55
-10.57
-10.57
-10.59
-10.55
-10.33
-10.2
-10.12
-9.99
-9.9
-9.84
-9.87
-9.89
-9.98
-10.14
-10.18
-10.04
-9.77
-9.48
-9.16
-8.97
-9.04
-9.23
-9.4
-9.51
-9.5
-9.29
-9.03
-8.85
-8.69
-8.62
-8.62
-8.66
-8.69
-8.73
-8.6
-8.4
-8.3
-8.22
-8.28
-8.57
-8.99
-9.25
-9.41
-9.54
-9.62
-9.79
-9.98
-10.08
-10.17
-10.15
-10.06
-10.02
-10.07
-10.23
-10.43
-10.6
-10.72
-10.78
-10.75
-10.69
-10.58
-10.55
-10.6
-10.62
-10.67
-10.78
-10.88
-10.99
-11.03
-10.99
-10.96
-10.89
-10.77
-10.73
-10.74
-10.76
-10.82
-10.93
-11.02
-11.03
-10.87
-10.69
-10.56
-10.51
-10.56
-10.62
-10.66
-10.6
-10.46
-10.26
-10.12
-10.01
-9.92
-9.84
-9.78
-9.87
-10.08
-10.19
-10.12
-10.04
-9.96
-9.93
-9.97
-10.04
-10.12
-10.15
-10.1
-10.07
-10.07
-10.13
-10.15
-10.24
-10.35
-10.32
-10.16
-9.93
-9.71
-9.62
-9.75
-9.89
-10
-9.97
-9.8
-9.6
-9.46
-9.42
-9.47
-9.59
-9.53
-9.38
-9.18
-8.92
-8.8
-8.85
-8.92
-8.9
-8.77
-8.51
-8.21
-7.92
-7.69
-7.5
-7.29
-7.19
-7.2
-7.44
-7.83
-8.11
-8.24
-8.3
-8.31
-8.24
-8.11
-7.95
-7.83
-7.7
-7.62
-7.63
-7.75
-7.86
-7.79
-7.71
-7.69
-7.65
-7.63
-7.63
-7.61
-7.73
-7.86
-7.93
-7.87
-7.44
-6.52
-5.47
-4.4
-3.27
-1.31
1.95
6.2
9.71
11.53
10.98
8.34
4.59
0.72
-2.27
-4.46
-6.18
-7.39
-7.9
-7.51
-6.81
-6.27
-6.04
-5.97
-6.05
-6.19
-6.22
-6.24
-6.2
-6.04
-5.88
-5.68
-5.47
-5.46
-5.6
-5.74
-5.84
-5.87
-5.85
-5.8
-5.64
-5.43
-5.3
-5.18
-5.06
-5.1
-5.25
-5.34
-5.32
-5.11
-4.85
-4.64
-4.4
-4.3
-4.31
-4.35
-4.33
-4.2
-4.02
-3.94
-3.89
-3.91
-3.96
-3.93
-3.84
-3.72
-3.63
-3.65
-3.65
-3.62
-3.49
-3.26
-3.1
-3.04
-2.97
-2.89
-2.77
-2.67
-2.65
-2.66
-2.64
-2.68
-2.65
-2.59
-2.61
-2.67
-2.73
-2.7
-2.55
-2.5
-2.55
-2.68
-2.86
-3.03
-3.11
-3.13
-3.15
-3.23
-3.35
-3.43
-3.44
-3.45
-3.45
-3.4
-3.36
-3.38
-3.39
-3.37
-3.33
-3.17
-3.01
-2.86
-2.79
-2.88
-2.93
-2.93
-2.94
-2.89
-2.83
-2.85
-2.84
-2.8
-2.73
-2.53
-2.42
-2.45
-2.56
-2.68
-2.75
-2.69
-2.53
-2.42
-2.31
-2.33
-2.41
-2.48
-2.43
-2.32
-2.21
-2.17
-2.22
-2.31
-2.37
-2.35
-2.23
-2.1
-2.01
-1.95
-1.85
-1.81
-1.78
-1.76
-1.79
-1.83
-1.93
-1.94
-1.79
-1.67
-1.63
-1.65
-1.72
-1.72
-1.58
-1.4
-1.21
-1.05
-0.98
-1.01
-0.98
-0.79
-0.56
-0.33
-0.1
0.11
0.28
0.4
0.47
0.5
0.49
0.27
-0.11
-0.5
-0.79
-0.98
-0.99
-0.95
-0.87
-0.84
-0.85
-0.8
-0.76
-0.74
-0.71
-0.69
-0.71
-0.8
-1.06
-1.2
-1.21
-1.13
-0.89
-0.68
-0.8
-1.19
-1.59
-1.57
-0.92
0.04
1.02
2.32
4.51
8.15
12.54
16.39
18.45
17.82
14.95
10.66
6.46
3.02
0.68
-0.98
-2.01
-2.16
-1.63
-0.97
-0.53
-0.44
-0.52
-0.59
-0.57
-0.53
-0.43
-0.43
-0.5
-0.56
-0.64
-0.67
-0.67
-0.66
-0.59
-0.46
-0.35
-0.25
-0.17
-0.12
-0.08
-0.06
-0.08
-0.1
-0.07
-0.04
0
0.03
0.02
-0.02
0
0.06
0.15
0.28
0.36
0.4
0.39
0.37
0.38
0.44
0.46
0.46
0.45
0.45
0.47
0.48
0.51
0.59
0.65
0.67
0.71
0.72
0.74
0.76
0.75
0.74
0.73
0.68
0.64
0.61
0.59
0.55
0.46
0.32
0.17
0.06
-0.02
-0.08
-0.17
-0.33
-0.55
-0.79
-1.06
-1.29
-1.54
-1.8
-2.07
-2.34
-2.6
-2.8
-2.98
-3.16
-3.33
-3.5
-3.67
-3.83
-4
-4.22
-4.42
-4.6
-4.75
-4.84
-4.88
-4.91
-4.96
-5.04
-5.19
-5.31
-5.37
-5.39
-5.33
-5.21
-5.09
-4.96
-4.84
-4.76
-4.68
-4.6
-4.48
-4.39
-4.34
-4.29
-4.25
-4.25
-4.24
-4.23
-4.17
-4.09
-4
-3.88
-3.78
-3.75
-3.74
-3.72
-3.72
-3.68
-3.59
-3.5
-3.42
-3.38
-3.39
-3.42
-3.44
-3.41
-3.36
-3.34
-3.32
-3.3
-3.27
-3.22
-3.17
-3.14
-3.07
-3
-2.94
-2.87
-2.84
-2.86
-2.87
-2.87
-2.85
-2.77
-2.68
-2.6
-2.57
-2.58
-2.6
-2.61
-2.6
-2.57
-2.51
-2.44
-2.39
-2.35
-2.32
-2.3
-2.27
-2.27
-2.25
-2.21
-2.2
-2.19
-2.21
-2.21
-2.22
-2.18
-2.1
-2.02
-1.95
-1.87
-1.79
-1.72
-1.68
-1.67
-1.73
-1.81
-1.85
-1.81
-1.75
-1.64
-1.54
-1.48
-1.41
-1.31
-1.19
-1.05
-0.96
-0.89
-0.81
-0.67
-0.52
-0.32
-0.12
0.04
0.18
0.3
0.36
0.38
0.35
0.2
-0.05
-0.28
-0.49
-0.61
-0.67
-0.7
-0.71
-0.67
-0.64
-0.66
-0.64
-0.63
-0.66
-0.67
-0.66
-0.64
-0.62
-0.57
-0.55
-0.53
-0.5
-0.56
-0.77
-1.07
-1.4
-1.42
-1.12
-0.63
-0.01
1.14
3.57
7.85
13.17
18.4
21.44
21.4
18.03
12.86
7.38
3
0.31
-1.08
-1.36
-0.97
-0.31
0.32
0.67
0.75
0.66
0.54
0.48
0.49
0.51
0.54
0.58
0.61
0.64
0.66
0.67
0.68
0.72
0.76
0.79
0.81
0.86
0.9
0.95
0.99
1.02
1.04
1.06
1.07
1.11
1.17
1.22
1.25
1.25
1.23
1.27
1.32
1.37
1.4
1.43
1.46
1.49
1.52
1.58
1.59
1.6
1.6
1.64
1.68
1.74
1.81
1.86
1.88
1.89
1.87
1.89
1.94
1.96
2
2.06
2.1
2.11
2.09
2.06
2.04
2.06
2.07
2.08
2.1
2.11
2.08
2.08
2.09
2.09
2.08
2.04
1.96
1.85
1.72
1.57
1.42
1.28
1.17
1.07
0.97
0.88
0.79
0.71
0.63
0.58
0.55
0.57
0.58
0.59
0.6
0.59
0.54
0.49
0.42
0.38
0.36
0.35
0.33
0.35
0.38
0.38
0.35
0.29
0.23
0.17
0.14
0.11
0.12
0.1
0.07
0.03
0
0
0
-0.03
-0.06
-0.07
-0.09
-0.12
-0.15
-0.17
-0.2
-0.21
-0.23
-0.25
-0.28
-0.34
-0.43
-0.5
-0.52
-0.49
-0.45
-0.42
-0.42
-0.48
-0.54
-0.59
-0.62
-0.6
-0.62
-0.64
-0.67
-0.71
-0.74
-0.74
-0.72
-0.73
-0.76
-0.81
-0.86
-0.9
-0.91
-0.9
-0.86
-0.85
-0.89
-0.94
-0.97
-0.98
-1
-1
-1.02
-1.06
-1.11
-1.15
-1.18
-1.19
-1.16
-1.13
-1.09
-1.1
-1.16
-1.22
-1.28
-1.32
-1.38
-1.41
-1.44
-1.47
-1.51
-1.5
-1.49
-1.48
-1.44
-1.4
-1.36
-1.31
-1.29
-1.29
-1.3
-1.27
-1.25
-1.22
-1.12
-1
-0.86
-0.77
-0.77
-0.88
-1.12
-1.42
-1.69
-1.9
-2.02
-2.1
-2.14
-2.15
-2.16
-2.2
-2.23
-2.28
-2.36
-2.44
-2.52
-2.59
-2.64
-2.68
-2.74
-2.78
-2.86
-2.9
-2.96
-3.1
-3.42
-3.78
-4.1
-4.16
-4.06
-3.93
-3.66
-2.71
-0.24
3.96
8.97
13.57
15.65
14.69
10.77
5.68
0.8
-2.73
-4.8
-5.76
-5.81
-5.4
-4.83
-4.37
-4.14
-4.15
-4.33
-4.5
-4.6
-4.66
-4.74
-4.82
-4.94
-5.02
-5.08
-5.15
-5.2
-5.23
-5.27
-5.32
-5.37
-5.44
-5.53
-5.63
-5.74
-5.82
-5.87
-5.91
-5.96
-5.99
-6.02
-6.05
-6.11
-6.17
-6.24
-6.28
-6.32
-6.32
-6.33
-6.35
-6.4
-6.5
-6.59
-6.69
-6.74
-6.76
-6.74
-6.73
-6.71
-6.71
-6.74
-6.8
-6.87
-6.93
-6.99
-7.04
-7.04
-7.02
-7.02
-7.03
-7.06
-7.12
-7.15
-7.2
-7.25
-7.27
-7.29
-7.3
-7.28
-7.26
-7.28
-7.37
-7.49
-7.63
-7.8
-7.97
-8.12
-8.28
-8.44
-8.59
-8.74
-8.91
-9.06
-9.25
-9.42
-9.57
-9.71
-9.84
-9.96
-10.08
-10.23
-10.34
-10.42
-10.5
-10.55
-10.6
-10.64
-10.7
-10.77
-10.84
-10.91
-11
-11.1
-11.18
-11.27
-11.37
-11.46
-11.54
-11.6
-11.59
-11.58
-11.58
-11.61
-11.7
-11.82
-11.96
-12.1
-12.18
-12.22
-12.26
-12.31
-12.38
-12.49
-12.56
-12.63
-12.69
-12.73
-12.78
-12.87
-12.96
-13.03
-13.07
-13.09
-13.11
-13.15
-13.22
-13.3
-13.39
-13.49
-13.56
-13.64
-13.68
-13.73
-13.75
-13.73
-13.73
-13.76
-13.83
-13.88
-13.92
-13.98
-13.98
-13.98
-14.01
-14.02
-14.09
-14.15
-14.19
-14.22
-14.23
-14.2
-14.15
-14.11
-14.08
-14.07
-14.06
-14.04
-14.01
-13.96
-13.97
-13.98
-14
-14.01
-14.02
-13.98
-13.89
-13.8
-13.73
-13.69
-13.7
-13.72
-13.76
-13.76
-13.72
-13.62
-13.54
-13.48
-13.38
-13.29
-13.2
-13.11
-13.07
-13.07
-13.06
-13.01
-12.91
-12.74
-12.56
-12.39
-12.26
-12.2
-12.19
-12.26
-12.42
-12.63
-12.83
-12.99
-13.03
-13.02
-12.96
-12.89
-12.85
-12.81
-12.78
-12.74
-12.71
-12.71
-12.76
-12.8
-12.84
-12.82
-12.76
-12.72
-12.68
-12.64
-12.61
-12.66
-12.83
-13.12
-13.31
-13.24
-13.04
-12.87
-12.65
-11.93
-9.53
-5.55
-0.44
3.99
6.41
5.7
2.33
-2.39
-6.99
-10.2
-12.12
-12.89
-12.87
-12.39
-11.69
-11.14
-10.79
-10.7
-10.77
-10.84
-10.81
-10.7
-10.59
-10.47
-10.37
-10.31
-10.26
-10.19
-10.11
-10.05
-10.02
-10.01
-9.99
-9.96
-9.94
-9.9
-9.9
-9.92
-9.95
-9.94
-9.93
-9.91
-9.89
-9.9
-9.93
-9.97
-10.03
-10.08
-10.09
-10.12
-10.13
-10.12
-10.15
-10.2
-10.27
-10.34
-10.4
-10.45
-10.5
-10.53
-10.53
-10.53
-10.48
-10.39
-10.28
-10.18
-10.11
-10.06
-10.02
-9.96
-9.88
-9.78
-9.67
-9.57
-9.48
-9.39
-9.3
-9.23
-9.17
-9.09
-9
-8.9
-8.81
-8.73
-8.67
-8.62
-8.64
-8.7
-8.81
-8.99
-9.28
-9.66
-10.12
-10.58
-10.98
-11.28
-11.53
-11.72
-11.8
-11.87
-11.91
-11.87
-11.81
-11.76
-11.7
-11.66
-11.64
-11.58
-11.53
-11.46
-11.36
-11.19
-10.96
-10.65
-10.27
-9.86
-9.47
-9.14
-8.89
-8.72
-8.6
-8.51
-8.46
-8.4
-8.34
-8.29
-8.26
-8.26
-8.28
-8.33
-8.36
-8.39
-8.35
-8.31
-8.27
-8.23
-8.21
-8.2
-8.21
-8.26
-8.33
-8.4
-8.49
-8.54
-8.55
-8.56
-8.57
-8.59
-8.61
-8.64
-8.69
-8.74
-8.8
-8.86
-8.91
-8.94
-8.95
-8.95
-8.95
-8.94
-8.93
-8.93
-8.92
-8.93
-8.95
-8.97
-9
-9.01
-9
-8.99
-8.98
-8.97
-8.99
-9.02
-9.03
-9.04
-9.03
-9.02
-9.03
-9.06
-9.08
-9.1
-9.11
-9.13
-9.14
-9.17
-9.19
-9.24
-9.26
-9.29
-9.34
-9.44
-9.62
-9.85
-10.1
-10.35
-10.54
-10.67
-10.69
-10.66
-10.62
-10.57
-10.54
-10.51
-10.44
-10.35
-10.21
-10.03
-9.85
-9.7
-9.57
-9.43
-9.3
-9.12
-8.96
-8.8
-8.61
-8.45
-8.33
-8.23
-8.2
-8.27
-8.41
-8.57
-8.69
-8.72
-8.72
-8.69
-8.68
-8.68
-8.73
-8.78
-8.8
-8.78
-8.75
-8.73
-8.73
-8.76
-8.77
-8.79
-8.76
-8.7
-8.63
-8.61
-8.67
-8.9
-9.28
-9.68
-9.91
-9.97
-10.04
-10.24
-10.13
-8.86
-5.77
-1.41
3.04
6.16
6.35
3.82
-0.79
-5.48
-9.24
-11.59
-12.84
-13.23
-12.96
-12.45
-11.96
-11.65
-11.58
-11.69
-11.86
-11.93
-11.9
-11.82
-11.78
-11.75
-11.71
-11.65
-11.57
-11.49
-11.41
-11.33
-11.25
-11.17
-11.09
-11
-10.9
-10.81
-10.69
-10.57
-10.44
-10.31
-10.19
-10.11
-10.04
-9.94
-9.85
-9.77
-9.67
-9.57
-9.51
-9.41
-9.33
-9.25
-9.17
-9.09
-9.04
-9.01
-9.01
-8.95
-8.85
-8.76
-8.67
-8.62
-8.57
-8.55
-8.51
-8.45
-8.33
-8.24
-8.19
-8.14
-8.09
-8.03
-7.97
-7.87
-7.77
-7.68
-7.57
-7.47
-7.36
-7.28
-7.24
-7.2
-7.16
-7.12
-7.09
-7.06
-7.04
-7.01
-6.97
-6.94
-6.96
-6.98
-7.03
-7.12
-7.2
-7.28
-7.36
-7.41
-7.43
-7.45
-7.44
-7.41
-7.41
-7.41
-7.41
-7.41
-7.39
-7.37
-7.32
-7.25
-7.19
-7.16
-7.1
-7.04
-7
-6.97
-6.98
-6.98
-6.98
-7
-7.04
-7.04
-7.06
-7.08
-7.05
-7.03
-7
-6.96
-6.97
-6.98
-6.98
-7.02
-7.01
-6.97
-6.97
-6.99
-6.98
-6.97
-6.97
-6.94
-6.89
-6.82
-6.74
-6.67
-6.6
-6.5
-6.42
-6.35
-6.29
-6.25
-6.25
-6.25
-6.25
-6.24
-6.2
-6.14
-6.09
-6.06
-6.07
-6.1
-6.12
-6.13
-6.13
-6.09
-6.05
-6.07
-6.1
-6.13
-6.18
-6.19
-6.18
-6.18
-6.18
-6.17
-6.21
-6.21
-6.2
-6.25
-6.25
-6.25
-6.25
-6.25
-6.28
-6.33
-6.39
-6.45
-6.55
-6.64
-6.76
-6.91
-7.07
-7.23
-7.34
-7.4
-7.44
-7.41
-7.35
-7.26
-7.18
-7.09
-7.01
-6.96
-6.91
-6.86
-6.8
-6.73
-6.62
-6.49
-6.37
-6.27
-6.16
-6.05
-5.92
-5.76
-5.61
-5.44
-5.25
-5.07
-4.89
-4.77
-4.72
-4.73
-4.85
-4.97
-5.06
-5.09
-5.04
-4.96
-4.89
-4.8
-4.73
-4.71
-4.65
-4.58
-4.5
-4.45
-4.39
-4.33
-4.25
-4.16
-4.08
-4
-3.92
-3.82
-3.78
-3.85
-4.1
-4.44
-4.69
-4.72
-4.67
-4.63
-4.61
-3.73
-1.3
2.83
7.54
11.44
13.07
11.63
7.92
3.05
-1.06
-3.97
-5.63
-6.31
-6.33
-5.91
-5.41
-5.08
-4.97
-5.07
-5.28
-5.43
-5.48
-5.48
-5.48
-5.5
-5.55
-5.62
-5.69
-5.72
-5.69
-5.66
-5.65
-5.62
-5.64
-5.68
-5.7
-5.69
-5.69
-5.67
-5.68
-5.74
-5.77
-5.75
-5.75
-5.7
-5.66
-5.65
-5.63
-5.64
-5.66
-5.65
-5.65
-5.64
-5.6
-5.52
-5.45
-5.4
-5.36
-5.31
-5.29
-5.26
-5.25
-5.23
-5.19
-5.15
-5.08
-4.99
-4.91
-4.83
-4.79
-4.74
-4.7
-4.67
-4.65
-4.6
-4.54
-4.46
-4.37
-4.27
-4.19
-4.14
-4.09
-4.08
-4.14
-4.26
-4.51
-4.87
-5.19
-5.48
-5.69
-5.76
-5.81
-5.85
-5.91
-6.04
-6.15
-6.23
-6.34
-6.44
-6.53
-6.61
-6.68
-6.74
-6.76
-6.75
-6.75
-6.73
-6.75
-6.76
-6.75
-6.71
-6.65
-6.62
-6.62
-6.65
-6.67
-6.69
-6.67
-6.64
-6.61
-6.59
-6.58
-6.57
-6.53
-6.5
-6.47
-6.44
-6.44
-6.46
-6.52
-6.55
-6.57
-6.57
-6.57
-6.58
-6.6
-6.61
-6.61
-6.62
-6.62
-6.63
-6.69
-6.74
-6.8
-6.82
-6.86
-6.91
-6.93
-6.95
-6.94
-6.93
-6.96
-7.01
-7.08
-7.16
-7.21
-7.21
-7.19
-7.16
-7.12
-7.11
-7.11
-7.13
-7.18
-7.23
-7.26
-7.28
-7.29
-7.29
-7.31
-7.32
-7.33
-7.36
-7.41
-7.43
-7.45
-7.48
-7.51
-7.52
-7.57
-7.58
-7.6
-7.61
-7.58
-7.55
-7.57
-7.6
-7.62
-7.63
-7.6
-7.55
-7.49
-7.45
-7.45
-7.45
-7.44
-7.41
-7.37
-7.33
-7.34
-7.34
-7.33
-7.32
-7.28
-7.19
-7.11
-6.99
-6.86
-6.72
-6.6
-6.51
-6.45
-6.4
-6.32
-6.23
-6.13
-6
-5.84
-5.65
-5.45
-5.32
-5.24
-5.22
-5.33
-5.52
-5.7
-5.85
-5.92
-5.92
-5.92
-5.87
-5.82
-5.78
-5.75
-5.68
-5.63
-5.59
-5.58
-5.57
-5.53
-5.5
-5.46
-5.43
-5.39
-5.33
-5.26
-5.28
-5.42
-5.66
-5.88
-5.9
-5.73
-5.56
-5.35
-4.77
-2.7
0.97
5.9
10.47
13.26
13.12
10.18
5.68
0.97
-2.43
-4.6
-5.58
-5.73
-5.36
-4.71
-4.2
-3.89
-3.83
-3.94
-4.1
-4.22
-4.23
-4.25
-4.23
-4.21
-4.18
-4.2
-4.25
-4.32
-4.38
-4.39
-4.43
-4.48
-4.55
-4.62
-4.69
-4.77
-4.85
-4.96
-5.04
-5.07
-5.02
-4.93
-4.83
-4.76
-4.68
-4.59
-4.52
-4.44
-4.38
-4.35
-4.33
-4.32
-4.28
-4.23
-4.17
-4.09
-3.99
-3.88
-3.78
-3.71
-3.65
-3.6
-3.55
-3.5
-3.47
-3.45
-3.41
-3.38
-3.33
-3.29
-3.27
-3.24
-3.22
-3.2
-3.16
-3.11
-3.12
-3.11
-3.11
-3.11
-3.05
-2.98
-2.93
-2.9
-2.95
-3.09
-3.24
-3.42
-3.6
-3.74
-3.87
-4.01
-4.12
-4.22
-4.32
-4.4
-4.49
-4.59
-4.69
-4.8
-4.89
-4.95
-4.99
-5.06
-5.17
-5.32
-5.52
-5.74
-5.91
-6.01
-6.02
-6.04
-6.02
-6.05
-6.08
-6.13
-6.18
-6.23
-6.26
-6.31
-6.34
-6.38
-6.45
-6.58
-6.75
-6.86
-6.93
-6.93
-6.84
-6.7
-6.57
-6.48
-6.46
-6.42
-6.39
-6.34
-6.27
-6.18
-6.07
-5.9
-5.72
-5.52
-5.31
-5.19
-5.15
-5.16
-5.18
-5.19
-5.08
-4.96
-4.84
-4.69
-4.59
-4.58
-4.58
-4.59
-4.59
-4.55
-4.45
-4.37
-4.3
-4.28
-4.32
-4.38
-4.44
-4.49
-4.45
-4.36
-4.26
-4.13
-4.09
-4.19
-4.37
-4.56
-4.66
-4.65
-4.62
-4.6
-4.6
-4.62
-4.62
-4.58
-4.5
-4.46
-4.5
-4.62
-4.73
-4.74
-4.63
-4.49
-4.37
-4.33
-4.37
-4.41
-4.4
-4.35
-4.28
-4.24
-4.23
-4.18
-4.03
-3.85
-3.68
-3.55
-3.48
-3.45
-3.35
-3.23
-3.1
-2.85
-2.6
-2.36
-2.05
-1.77
-1.47
-1.19
-1.02
-0.96
-1.02
-1.22
-1.45
-1.6
-1.67
-1.62
-1.49
-1.28
-1.01
-0.82
-0.72
-0.68
-0.64
-0.65
-0.63
-0.52
-0.42
-0.29
-0.19
-0.19
-0.17
-0.04
0.05
0.11
0.07
-0.08
-0.28
-0.22
0.14
0.76
1.47
2.49
4.48
8.3
13.26
18.28
21.45
21.85
19.05
14.42
9.3
4.96
2.14
0.38
-0.54
-0.66
-0.22
0.47
1.05
1.36
1.4
1.24
1.04
0.9
0.96
1.09
1.27
1.32
1.2
1.02
0.81
0.68
0.82
1.05
1.24
1.43
1.6
1.77
1.97
2.1
2.14
2.21
2.28
2.32
2.38
2.45
2.43
2.37
2.34
2.36
2.49
2.69
2.88
3.06
3.12
3.1
3.19
3.29
3.32
3.34
3.38
3.49
3.7
3.91
4.06
4.23
4.24
4.14
4.14
4.21
4.23
4.25
4.28
4.3
4.39
4.46
4.51
4.54
4.48
4.37
4.3
4.26
4.26
4.33
4.41
4.4
4.26
4.05
3.84
3.61
3.4
3.18
2.92
2.7
2.46
2.26
2.17
2.02
1.82
1.7
1.57
1.45
1.44
1.4
1.34
1.3
1.28
1.36
1.36
1.22
1.03
0.88
0.83
0.84
0.96
1.05
1
0.9
0.77
0.7
0.64
0.5
0.32
0.23
0.15
0.08
0.15
0.23
0.3
0.2
-0.01
-0.16
-0.37
-0.61
-0.67
-0.71
-0.75
-0.78
-0.86
-0.96
-0.94
-0.91
-0.86
-0.76
-0.82
-0.96
-1.11
-1.28
-1.44
-1.54
-1.59
-1.59
-1.62
-1.61
-1.53
-1.46
-1.42
-1.4
-1.39
-1.32
-1.27
-1.26
-1.26
-1.19
-1.05
-0.93
-0.79
-0.7
-0.72
-0.84
-0.95
-0.98
-0.91
-0.78
-0.66
-0.49
-0.35
-0.36
-0.37
-0.3
-0.12
0.1
0.22
0.24
0.22
0.21
0.23
0.38
0.72
1.09
1.43
1.68
1.79
1.77
1.64
1.34
0.97
0.63
0.39
0.27
0.25
0.29
0.31
0.27
0.18
0.06
-0.03
-0.01
0.01
0.07
0.15
0.12
0.04
0.02
-0.02
-0.05
0.01
0.01
-0.13
-0.38
-0.66
-0.7
-0.25
0.44
1.21
2.19
3.66
6.35
10.55
15.08
18.67
19.79
18.33
14.64
10.26
6.11
3
0.82
-0.78
-1.8
-2.02
-1.67
-1.14
-0.85
-0.76
-0.84
-1
-1.16
-1.3
-1.39
-1.45
-1.57
-1.67
-1.75
-1.84
-1.9
-1.9
-1.88
-1.83
-1.77
-1.82
-1.88
-1.93
-1.94
-1.93
-1.87
-1.75
-1.63
-1.61
-1.65
-1.64
-1.61
-1.47
-1.29
-1.17
-1.13
-1.19
-1.33
-1.35
-1.28
-1.22
-1.21
-1.18
-1.16
-1.07
-0.9
-0.68
-0.52
-0.48
-0.48
-0.44
-0.42
-0.42
-0.44
-0.49
-0.52
-0.64
-0.66
-0.62
-0.58
-0.54
-0.5
-0.44
-0.39
-0.4
-0.46
-0.5
-0.58
-0.73
-0.8
-0.82
-0.87
-0.96
-1.11
-1.32
-1.53
-1.83
-2.16
-2.35
-2.43
-2.4
-2.28
-2.2
-2.2
-2.3
-2.45
-2.59
-2.58
-2.49
-2.31
-2.18
-2.16
-2.1
-2.06
-2.11
-2.09
-2.05
-2.07
-2.09
-2.12
-2.14
-2.08
-2.08
-2.17
-2.14
-2.11
-2.1
-2.04
-2.08
-2.27
-2.53
-2.88
-3.2
-3.41
-3.56
-3.64
-3.6
-3.54
-3.5
-3.44
-3.41
-3.51
-3.58
-3.67
-3.74
-3.71
-3.67
-3.67
-3.63
-3.6
-3.6
-3.6
-3.56
-3.51
-3.47
-3.47
-3.43
-3.45
-3.47
-3.44
-3.41
-3.33
-3.27
-3.29
-3.27
-3.24
-3.18
-3.14
-3.1
-3.11
-3.16
-3.19
-3.2
-3.19
-3.23
-3.28
-3.19
-3.06
-2.93
-2.84
-2.77
-2.81
-2.83
-2.86
-2.83
-2.72
-2.61
-2.51
-2.35
-2.15
-1.99
-1.82
-1.69
-1.67
-1.78
-2.06
-2.49
-2.88
-3.22
-3.43
-3.53
-3.6
-3.61
-3.62
-3.63
-3.59
-3.54
-3.56
-3.59
-3.6
-3.59
-3.53
-3.48
-3.43
-3.38
-3.34
-3.3
-3.31
-3.44
-3.67
-3.93
-3.94
-3.61
-2.97
-2.16
-1.05
0.83
4.32
8.92
13.63
16.59
16.99
14.5
10.26
5.55
1.57
-1.08
-2.87
-4.02
-4.46
-4.28
-3.64
-3.02
-2.59
-2.41
-2.43
-2.52
-2.6
-2.53
-2.4
-2.27
-2.2
-2.18
-2.2
-2.16
-2.07
-1.99
-1.92
-1.86
-1.84
-1.76
-1.63
-1.48
-1.34
-1.3
-1.34
-1.3
-1.22
-1.14
-1.02
-0.93
-0.91
-0.89
-0.89
-0.83
-0.63
-0.43
-0.3
-0.19
-0.11
-0.11
-0.13
-0.14
-0.08
-0.01
0.09
0.27
0.5
0.74
0.9
0.96
0.98
1.06
1.14
1.27
1.41
1.55
1.67
1.77
1.85
1.88
1.86
1.86
1.91
2.03
2.14
2.22
2.25
2.24
2.21
2.15
2.07
1.96
1.71
1.47
1.3
1.17
1.09
1.05
0.99
0.97
0.95
0.86
0.81
0.76
0.69
0.7
0.72
0.75
0.81
0.85
0.85
0.88
0.9
0.92
0.93
0.92
0.9
0.89
0.88
0.88
0.89
0.85
0.79
0.82
0.84
0.86
0.9
0.92
0.97
1.04
1
0.96
0.99
0.95
0.89
0.91
0.95
0.91
0.84
0.76
0.77
0.83
0.86
0.82
0.73
0.64
0.54
0.54
0.66
0.78
0.8
0.7
0.55
0.41
0.3
0.24
0.24
0.28
0.33
0.35
0.31
0.25
0.1
-0.05
-0.08
-0.05
0.08
0.26
0.37
0.39
0.33
0.24
0.17
0.14
0.16
0.18
0.15
0.09
0.01
0.01
0.08
0.2
0.29
0.26
0.18
0.1
0.05
0.05
0.09
0.1
0.08
0.07
0.06
0.09
0.17
0.23
0.29
0.37
0.38
0.36
0.33
0.32
0.35
0.5
0.7
0.92
1.1
1.23
1.32
1.36
1.36
1.28
1.08
0.82
0.55
0.33
0.23
0.2
0.2
0.23
0.24
0.23
0.24
0.26
0.26
0.25
0.2
0.18
0.18
0.19
0.22
0.24
0.23
0.2
0.09
-0.1
-0.37
-0.64
-0.74
-0.5
-0.02
0.61
1.5
3.31
6.64
11.57
16.6
20.42
21.62
19.61
15.36
9.96
5.33
2.03
0.05
-0.99
-1.27
-0.97
-0.45
0.07
0.38
0.51
0.54
0.48
0.36
0.23
0.11
0.03
-0.03
-0.07
-0.05
-0.03
-0.04
-0.02
0.04
0.22
0.38
0.48
0.49
0.42
0.28
0.18
0.16
0.23
0.37
0.44
0.44
0.42
0.41
0.41
0.41
0.38
0.31
0.27
0.26
0.27
0.32
0.36
0.38
0.38
0.36
0.33
0.35
0.36
0.36
0.4
0.45
0.5
0.55
0.55
0.54
0.6
0.67
0.76
0.8
0.75
0.66
0.54
0.47
0.47
0.48
0.45
0.41
0.35
0.27
0.19
0.15
0.08
0.01
-0.07
-0.2
-0.33
-0.5
-0.73
-0.93
-1.08
-1.22
-1.32
-1.41
-1.5
-1.58
-1.63
-1.66
-1.66
-1.68
-1.74
-1.82
-1.92
-1.98
-1.97
-1.89
-1.76
-1.64
-1.61
-1.63
-1.68
-1.75
-1.77
-1.72
-1.6
-1.45
-1.37
-1.35
-1.4
-1.48
-1.6
-1.67
-1.71
-1.67
-1.6
-1.52
-1.41
-1.33
-1.32
-1.38
-1.43
-1.49
-1.52
-1.52
-1.53
-1.5
-1.49
-1.51
-1.55
-1.54
-1.55
-1.52
-1.5
-1.48
-1.5
-1.57
-1.65
-1.68
-1.66
-1.63
-1.55
-1.51
-1.51
-1.57
-1.63
-1.69
-1.72
-1.73
-1.71
-1.64
-1.6
-1.58
-1.58
-1.58
-1.6
-1.59
-1.56
-1.54
-1.51
-1.51
-1.5
-1.48
-1.46
-1.43
-1.39
-1.37
-1.37
-1.34
-1.31
-1.25
-1.18
-1.08
-1
-0.94
-0.94
-1.01
-1.08
-1.06
-0.98
-0.82
-0.65
-0.55
-0.54
-0.55
-0.62
-0.65
-0.63
-0.63
-0.64
-0.64
-0.63
-0.61
-0.57
-0.57
-0.6
-0.63
-0.69
-0.75
-0.75
-0.74
-0.75
-0.73
-0.69
-0.67
-0.65
-0.63
-0.58
-0.55
-0.54
-0.57
-0.58
-0.61
-0.64
-0.62
-0.58
-0.55
-0.54
-0.58
-0.62
-0.6
-0.59
-0.62
-0.65
-0.73
-0.79
-0.78
-0.77
-0.74
-0.72
-0.75
-0.78
-0.75
-0.69
-0.57
-0.47
-0.43
-0.42
-0.42
-0.43
-0.37
-0.27
-0.17
-0.08
-0.03
0.01
0.05
0.07
0.03
-0.1
-0.36
-0.68
-0.98
-1.2
-1.33
-1.4
-1.47
-1.55
-1.67
-1.77
-1.88
-1.95
-2.03
-2.13
-2.23
-2.31
-2.38
-2.44
-2.44
-2.46
-2.51
-2.58
-2.73
-2.99
-3.4
-3.9
-4.26
-4.26
-4.03
-3.58
-2.7
-0.85
2.81
8.11
13.87
18.72
20.42
18.51
13.24
6.71
0.58
-3.75
-5.97
-6.58
-6.03
-5.14
-4.42
-4.11
-4.16
-4.42
-4.73
-4.97
-5.14
-5.25
-5.32
-5.44
-5.59
-5.75
-5.89
-6
-6.1
-6.2
-6.26
-6.37
-6.5
-6.6
-6.7
-6.77
-6.81
-6.86
-6.95
-7.06
-7.19
-7.35
-7.43
-7.51
-7.58
-7.65
-7.77
-7.93
-8.06
-8.13
-8.18
-8.19
-8.22
-8.3
-8.38
-8.47
-8.54
-8.56
-8.57
-8.63
-8.71
-8.84
-9.01
-9.15
-9.25
-9.35
-9.42
-9.53
-9.63
-9.74
-9.85
-9.94
-10
-10.09
-10.19
-10.28
-10.38
-10.5
-10.63
-10.81
-11
-11.19
-11.39
-11.6
-11.8
-12.03
-12.29
-12.56
-12.86
-13.21
-13.57
-13.93
-14.33
-14.69
-15.05
-15.39
-15.67
-15.94
-16.22
-16.47
-16.73
-16.97
-17.2
-17.43
-17.67
-17.88
-18.08
-18.28
-18.44
-18.6
-18.77
-18.93
-19.1
-19.24
-19.37
-19.46
-19.54
-19.63
-19.75
-19.92
-20.09
-20.25
-20.41
-20.54
-20.65
-20.81
-20.96
-21.17
-21.44
-21.66
-21.85
-22.06
-22.22
-22.43
-22.67
-22.9
-23.15
-23.45
-23.74
-24.09
-24.44
-24.76
-24.96
-25.13
-25.31
-25.51
-25.74
-26.02
-26.35
-26.67
-26.95
-27.16
-27.32
-27.47
-27.57
-27.66
-27.79
-27.96
-28.12
-28.27
-28.43
-28.57
-28.68
-28.77
-28.84
-28.92
-29.04
-29.16
-29.25
-29.35
-29.44
-29.51
-29.59
-29.68
-29.78
-29.86
-29.94
-30.01
-30.09
-30.18
-30.29
-30.4
-30.5
-30.6
-30.67
-30.74
-30.82
-30.88
-30.9
-30.85
-30.78
-30.7
-30.63
-30.55
-30.46
-30.4
-30.35
-30.31
-30.25
-30.2
-30.12
-30.01
-29.9
-29.86
-29.85
-29.85
-29.84
-29.79
-29.74
-29.7
-29.67
-29.67
-29.68
-29.67
-29.65
-29.64
-29.64
-29.66
-29.7
-29.74
-29.79
-29.84
-29.84
-29.83
-29.79
-29.76
-29.75
-29.78
-29.82
-29.85
-29.86
-29.83
-29.79
-29.75
-29.72
-29.68
-29.64
-29.6
-29.58
-29.59
-29.56
-29.51
-29.42
-29.3
-29.2
-29.18
-29.23
-29.33
-29.47
-29.58
-29.69
-29.81
-29.97
-30.18
-30.46
-30.75
-31.1
-31.55
-32.06
-32.52
-32.93
-33.23
-33.48
-33.73
-33.98
-34.25
-34.53
-34.78
-34.99
-35.16
-35.22
-35.2
-35.13
-35.07
-35.03
-35.05
-35.05
-35.08
-35.19
-35.44
-35.88
-36.34
-36.58
-36.46
-36.14
-35.68
-34.8
-32.92
-29.17
-23.83
-18.11
-13.43
-12.03
-14.2
-19.52
-25.9
-31.77
-35.83
-37.95
-38.54
-37.97
-37.1
-36.36
-35.57
-43.13
-50.91
-50.78
-51.08
-51.37
-51.67
-52
-52.37
-52.74
-53.08
-53.32
-53.42
-53.43
-53.39
-53.25
-53.16
-53.12
-53.06
-52.98
-52.89
-52.76
-52.64
-52.52
-52.41
-52.43
-52.46
-52.39
-52.07
-51.43
-50.49
-49.37
-48.2
-47.14
-46.26
-45.45
-44.65
-43.88
-43.12
-42.36
-41.63
-40.93
-40.2
-39.45
-38.63
-37.69
-36.77
-35.89
-35.04
-34.24
-33.48
-32.76
-32.1
-31.52
-30.95
-30.35
-29.73
-29.04
-28.33
-27.66
-27.03
-26.47
-25.98
-25.53
-25.1
-24.69
-24.21
-23.73
-23.29
-22.88
-22.62
-22.49
-22.44
-22.4
-22.31
-22.09
-21.81
-21.48
-21.1
-20.75
-20.4
-20.04
-19.7
-19.34
-18.93
-18.51
-18.09
-17.69
-17.34
-17.05
-16.78
-16.49
-16.19
-15.88
-15.57
-15.26
-14.94
-14.63
-14.34
-14.03
-13.69
-13.31
-12.94
-12.59
-12.3
-12.11
-11.99
-11.92
-11.81
-11.68
-11.5
-11.3
-11.11
-10.99
-10.92
-10.81
-10.68
-10.46
-10.23
-9.97
-9.73
-9.5
-9.31
-9.15
-8.95
-8.75
-8.53
-8.31
-8.06
-7.77
-7.46
-7.13
-6.81
-6.53
-6.32
-6.14
-5.94
-5.75
-5.53
-5.3
-5.1
-4.91
-4.73
-4.59
-4.42
-4.21
-3.99
-3.76
-3.57
-3.43
-3.29
-3.14
-2.99
-2.82
-2.64
-2.46
-2.28
-2.18
-2.14
-2.1
-2.07
-2.06
-2.02
-2
-2.01
-2.04
-2.11
-2.17
-2.21
-2.23
-2.2
-2.15
-2.08
-2.02
-1.99
-2
-2.01
-2.01
-2.01
-1.96
-1.88
-1.8
-1.72
-1.66
-1.6
-1.53
-1.44
-1.35
-1.29
-1.26
-1.26
-1.28
-1.25
-1.22
-1.17
-1.08
-1.04
-0.99
-0.93
-0.88
-0.83
-0.75
-0.71
-0.68
-0.65
-0.62
-0.64
-0.63
-0.63
-0.67
-0.72
-0.78
-0.83
-0.86
-0.87
-0.82
-0.7
-0.59
-0.48
-0.37
-0.22
-0.06
0.11
0.28
0.45
0.6
0.72
0.79
0.82
0.85
0.89
0.98
1.12
1.32
1.52
1.69
1.81
1.89
1.91
1.82
1.6
1.35
1.14
1.04
1.14
1.33
1.55
1.61
1.51
1.33
1.18
1.11
1.15
1.27
1.38
1.48
1.54
1.56
1.56
1.53
1.51
1.51
1.49
1.45
1.34
1.23
1.1
1
0.95
0.82
0.52
0.12
-0.21
-0.23
0.05
0.5
1.12
2.57
5.55
10.41
15.96
20.72
23.03
21.53
16.95
10.42
4.36
-0.12
-2.58
-3.39
-3.12
-2.23
-1.38
-0.85
-0.7
-0.81
-1
-1.1
-1.02
-0.88
-0.71
-0.58
-0.44
-0.32
-0.19
-0.06
0.03
0.1
0.13
0.05
-0.06
-0.21
-0.43
-0.58
-0.64
-0.6
-0.46
-0.28
-0.08
0.08
0.2
0.32
0.48
0.65
0.85
1.04
1.2
1.33
1.42
1.48
1.6
1.75
1.87
2
2.1
2.2
2.33
2.47
2.62
2.78
2.88
2.94
3.02
3.09
3.17
3.29
3.44
3.61
3.76
3.88
3.94
3.97
4.02
4.05
4.08
4.13
4.17
4.24
4.31
4.39
4.49
4.54
4.55
4.47
4.4
4.32
4.22
4.09
3.97
3.86
3.74
3.62
3.48
3.4
3.3
3.23
3.2
3.2
3.23
3.25
3.26
3.27
3.25
3.21
3.16
3.09
3.05
3.05
3.03
3
2.95
2.89
2.85
2.84
2.84
2.85
2.87
2.87
2.86
2.86
2.83
2.86
2.91
2.94
2.97
3.04
3.08
3.11
3.15
3.21
3.29
3.38
3.46
3.53
3.56
3.55
3.52
3.51
3.46
3.39
3.3
3.22
3.18
3.16
3.16
3.21
3.26
3.28
3.28
3.29
3.29
3.27
3.26
3.25
3.25
3.29
3.34
3.41
3.5
3.58
3.61
3.6
3.58
3.51
3.46
3.43
3.36
3.29
3.23
3.21
3.25
3.31
3.37
3.38
3.34
3.25
3.1
2.95
2.86
2.76
2.69
2.61
2.52
2.42
2.33
2.23
2.15
2.1
2.04
2
1.92
1.83
1.75
1.73
1.7
1.67
1.63
1.58
1.52
1.45
1.39
1.34
1.32
1.34
1.4
1.52
1.68
1.85
2
2.15
2.24
2.27
2.23
2.14
2.02
1.89
1.79
1.74
1.71
1.7
1.69
1.66
1.64
1.62
1.63
1.71
1.84
2.03
2.19
2.33
2.4
2.45
2.48
2.51
2.57
2.61
2.64
2.68
2.7
2.74
2.74
2.72
2.69
2.66
2.61
2.56
2.52
2.46
2.41
2.37
2.38
2.47
2.6
2.74
2.86
2.92
2.95
2.97
2.98
3.02
3.06
3.14
3.22
3.29
3.36
3.37
3.2
2.84
2.41
2
1.73
1.64
1.66
1.71
1.72
1.65
1.56
1.51
1.49
1.51
1.51
1.48
1.42
1.35
1.29
1.24
1.23
1.2
1.03
0.69
0.19
-0.15
-0.15
0.18
0.6
1.19
2.35
5.24
9.89
15.81
20.87
23.57
22.68
18.57
12.79
7
2.96
0.65
-0.12
0.03
0.67
1.45
1.94
2.12
2.01
1.76
1.52
1.36
1.26
1.22
1.21
1.17
1.11
1.05
1
0.95
0.89
0.82
0.76
0.7
0.69
0.73
0.78
0.82
0.84
0.84
0.84
0.82
0.82
0.77
0.71
0.67
0.65
0.65
0.65
0.64
0.64
0.66
0.67
0.74
0.8
0.86
0.89
0.93
0.98
1.04
1.13
1.21
1.28
1.31
1.36
1.42
1.51
1.56
1.58
1.55
1.56
1.58
1.62
1.68
1.74
1.79
1.81
1.83
1.87
1.94
2
2.04
2.05
2.06
2.04
2.01
1.98
1.95
1.88
1.77
1.65
1.51
1.38
1.25
1.05
0.8
0.55
0.29
0.07
-0.05
-0.1
-0.15
-0.23
-0.34
-0.44
-0.5
-0.54
-0.58
-0.58
-0.56
-0.58
-0.58
-0.58
-0.6
-0.63
-0.67
-0.71
-0.71
-0.73
-0.74
-0.77
-0.81
-0.83
-0.81
-0.78
-0.77
-0.78
-0.81
-0.83
-0.84
-0.77
-0.67
-0.56
-0.47
-0.41
-0.35
-0.29
-0.24
-0.25
-0.25
-0.27
-0.3
-0.34
-0.38
-0.43
-0.45
-0.46
-0.43
-0.41
-0.39
-0.34
-0.27
-0.2
-0.16
-0.13
-0.14
-0.14
-0.13
-0.1
-0.06
-0.06
-0.08
-0.12
-0.16
-0.18
-0.14
-0.1
-0.06
-0.04
-0.02
0.03
0.07
0.1
0.11
0.1
0.09
0.11
0.19
0.28
0.37
0.45
0.49
0.53
0.59
0.66
0.71
0.79
0.84
0.89
0.98
1.06
1.16
1.31
1.46
1.58
1.71
1.79
1.83
1.86
1.87
1.88
1.91
1.93
1.94
1.97
2
2.04
2.09
2.14
2.17
2.18
2.16
2.12
2.06
1.99
1.91
1.83
1.76
1.72
1.7
1.68
1.69
1.68
1.7
1.74
1.78
1.81
1.88
1.95
2.03
2.1
2.14
2.17
2.2
2.2
2.21
2.21
2.21
2.2
2.22
2.28
2.29
2.3
2.31
2.31
2.36
2.47
2.54
2.6
2.61
2.58
2.57
2.6
2.63
2.69
2.78
2.87
2.97
3.04
3.02
2.86
2.55
2.21
1.91
1.7
1.6
1.57
1.57
1.54
1.49
1.41
1.35
1.31
1.27
1.26
1.28
1.31
1.33
1.33
1.34
1.36
1.34
1.18
0.85
0.49
0.3
0.41
0.67
0.99
1.52
3.01
6.31
11.06
16.04
19.82
20.6
18.41
13.84
8.85
4.67
1.96
0.43
-0.2
-0.09
0.45
1.14
1.71
2
2.09
2.04
2
2.02
2.07
2.09
2.09
2.08
2.06
2.04
2.06
2.06
2.09
2.12
2.1
2.06
2.01
1.96
1.95
1.98
2.01
2.08
2.15
2.21
2.24
2.27
2.28
2.25
2.26
2.28
2.28
2.28
2.29
2.29
2.33
2.36
2.38
2.39
2.4
2.4
2.42
2.46
2.53
2.59
2.62
2.64
2.67
2.7
2.73
2.77
2.78
2.78
2.77
2.79
2.82
2.91
2.99
3.05
3.09
3.12
3.15
3.17
3.22
3.27
3.29
3.28
3.25
3.18
3.09
2.98
2.85
2.73
2.59
2.46
2.32
2.18
1.99
1.81
1.62
1.42
1.23
1.08
0.94
0.8
0.68
0.57
0.48
0.36
0.25
0.14
0.04
-0.04
-0.13
-0.19
-0.27
-0.37
-0.48
-0.56
-0.63
-0.72
-0.82
-0.94
-1.06
-1.18
-1.33
-1.47
-1.6
-1.74
-1.89
-2.02
-2.12
-2.24
-2.32
-2.45
-2.58
-2.73
-2.88
-3.04
-3.2
-3.35
-3.49
-3.64
-3.77
-3.88
-3.99
-4.07
-4.16
-4.25
-4.35
-4.45
-4.57
-4.7
-4.84
-4.96
-5.08
-5.2
-5.33
-5.43
-5.55
-5.64
-5.76
-5.86
-5.96
-6.08
-6.2
-6.31
-6.42
-6.54
-6.62
-6.71
-6.79
-6.84
-6.92
-7.04
-7.16
-7.29
-7.41
-7.52
-7.62
-7.72
-7.84
-7.95
-8.05
-8.11
-8.17
-8.24
-8.35
-8.45
-8.53
-8.61
-8.68
-8.73
-8.81
-8.94
-9.09
-9.25
-9.41
-9.55
-9.65
-9.72
-9.78
-9.82
-9.83
-9.82
-9.85
-9.94
-10.14
-10.36
-10.58
-10.76
-10.88
-10.93
-10.96
-11.02
-11.09
-11.18
-11.27
-11.39
-11.5
-11.61
-11.71
-11.8
-11.88
-11.96
-12.05
-12.13
-12.23
-12.31
-12.36
-12.42
-12.44
-12.42
-12.43
-12.45
-12.47
-12.52
-12.56
-12.57
-12.6
-12.62
-12.67
-12.73
-12.83
-12.93
-13.01
-13.07
-13.11
-13.13
-13.18
-13.24
-13.31
-13.36
-13.4
-13.4
-13.37
-13.37
-13.4
-13.44
-13.5
-13.51
-13.5
-13.48
-13.44
-13.37
-13.33
-13.27
-13.22
-13.25
-13.42
-13.7
-14.04
-14.32
-14.52
-14.64
-14.67
-14.68
-14.7
-14.76
-14.81
-14.86
-14.93
-15.04
-15.15
-15.23
-15.28
-15.28
-15.27
-15.25
-15.19
-15.27
-15.51
-15.86
-16.13
-16.15
-15.84
-15.48
-15.08
-14.36
-12.17
-8.31
-3.1
1.66
4.53
4.27
0.98
-3.93
-9.08
-12.8
-15.13
-16.23
-16.5
-16.2
-15.58
-15.04
-14.72
-14.72
-14.92
-15.16
-15.33
-15.39
-15.38
-15.38
-15.42
-15.45
-15.5
-15.5
-15.5
-15.49
-15.5
-15.53
-15.58
-15.65
-15.72
-15.76
-15.76
-15.73
-15.68
-15.61
-15.54
-15.48
-15.4
-15.28
-15.13
-15.01
-14.91
-14.81
-14.71
-14.63
-14.57
-14.5
-14.45
-14.41
-14.39
-14.38
-14.41
-14.45
-14.51
-14.58
-14.64
-14.68
-14.67
-14.69
-14.77
-14.94
-15.2
-15.46
-15.64
-15.77
-15.8
-15.76
-15.75
-15.75
-15.74
-15.73
-15.71
-15.68
-15.64
-15.56
-15.41
-15.27
-15.16
-15.1
-15.15
-15.23
-15.34
-15.44
-15.54
-15.63
-15.74
-15.87
-16
-16.15
-16.33
-16.57
-16.88
-17.24
-17.61
-17.93
-18.19
-18.32
-18.4
-18.45
-18.51
-18.53
-18.54
-18.57
-18.56
-18.54
-18.5
-18.47
-18.49
-18.52
-18.54
-18.52
-18.48
-18.43
-18.39
-18.39
-18.45
-18.55
-18.6
-18.6
-18.6
-18.6
-18.7
-18.84
-19
-19.17
-19.26
-19.25
-19.3
-19.34
-19.38
-19.44
-19.46
-19.43
-19.39
-19.35
-19.34
-19.35
-19.35
-19.36
-19.32
-19.27
-19.22
-19.17
-19.18
-19.23
-19.25
-19.27
-19.27
-19.26
-19.28
-19.32
-19.37
-19.41
-19.44
-19.47
-19.49
-19.47
-19.43
-19.34
-19.22
-19.1
-19
-18.96
-18.94
-18.91
-18.88
-18.87
-18.85
-18.77
-18.66
-18.53
-18.4
-18.28
-18.2
-18.14
-18.09
-18.07
-18.03
-17.95
-17.85
-17.74
-17.64
-17.52
-17.4
-17.34
-17.29
-17.23
-17.22
-17.23
-17.17
-17.09
-16.99
-16.87
-16.88
-16.91
-16.91
-16.89
-16.81
-16.61
-16.41
-16.29
-16.16
-16.07
-15.98
-15.85
-15.7
-15.6
-15.49
-15.39
-15.32
-15.27
-15.24
-15.26
-15.3
-15.31
-15.26
-15.13
-14.97
-14.83
-14.71
-14.65
-14.62
-14.59
-14.58
-14.55
-14.51
-14.47
-14.46
-14.46
-14.46
-14.44
-14.36
-14.22
-14.09
-14.03
-13.97
-13.86
-13.76
-13.53
-13.27
-13.06
-12.91
-12.79
-12.63
-12.38
-12.13
-11.93
-11.76
-11.62
-11.5
-11.39
-11.27
-11.14
-11.09
-11.03
-10.9
-10.72
-10.52
-10.31
-10.13
-10.02
-10
-10.12
-10.28
-10.41
-10.47
-10.5
-10.44
-10.33
-10.24
-10.17
-10.12
-10.02
-9.9
-9.79
-9.73
-9.67
-9.62
-9.57
-9.53
-9.43
-9.31
-9.27
-9.35
-9.53
-9.68
-9.55
-9.21
-8.87
-8.65
-8.1
-6.35
-2.95
1.4
5.77
8.27
8.26
5.61
1.61
-2.47
-5.61
-7.73
-9
-9.46
-9.35
-8.83
-8.2
-7.78
-7.6
-7.66
-7.85
-7.97
-8.03
-8.05
-8.01
-7.97
-7.95
-7.91
-7.93
-7.93
-7.93
-7.91
-7.89
-7.89
-7.89
-7.89
-7.93
-7.98
-8.01
-8.04
-8.09
-8.1
-8.08
-8.02
-7.95
-7.89
-7.87
-7.86
-7.88
-7.86
-7.77
-7.65
-7.51
-7.4
-7.34
-7.35
-7.35
-7.32
-7.22
-7.12
-7.05
-7.03
-6.99
-6.91
-6.8
-6.6
-6.4
-6.21
-6.02
-5.87
-5.72
-5.58
-5.5
-5.44
-5.38
-5.3
-5.18
-5.08
-5
-4.95
-4.93
-4.93
-4.96
-5
-5.03
-5.08
-5.12
-5.16
-5.27
-5.42
-5.59
-5.78
-5.93
-6.06
-6.21
-6.35
-6.48
-6.6
-6.67
-6.68
-6.68
-6.7
-6.72
-6.73
-6.69
-6.63
-6.59
-6.56
-6.59
-6.64
-6.7
-6.77
-6.79
-6.79
-6.76
-6.73
-6.69
-6.7
-6.72
-6.76
-6.76
-6.73
-6.65
-6.56
-6.47
-6.38
-6.31
-6.26
-6.27
-6.33
-6.44
-6.54
-6.62
-6.67
-6.72
-6.72
-6.66
-6.63
-6.6
-6.64
-6.71
-6.76
-6.81
-6.82
-6.73
-6.67
-6.64
-6.66
-6.72
-6.73
-6.7
-6.68
-6.7
-6.77
-6.84
-6.86
-6.83
-6.71
-6.56
-6.46
-6.4
-6.37
-6.37
-6.38
-6.44
-6.53
-6.63
-6.71
-6.8
-6.88
-6.96
-7.01
-7.03
-7.06
-7.1
-7.14
-7.25
-7.38
-7.45
-7.5
-7.49
-7.47
-7.51
-7.55
-7.62
-7.73
-7.83
-7.87
-7.92
-7.98
-8.06
-8.19
-8.35
-8.45
-8.56
-8.66
-8.72
-8.79
-8.89
-8.93
-8.97
-8.98
-8.98
-9.06
-9.15
-9.23
-9.28
-9.3
-9.28
-9.26
-9.25
-9.31
-9.31
-9.27
-9.18
-9.09
-9.05
-9.03
-8.97
-8.96
-8.98
-9.03
-9.16
-9.43
-9.75
-10.09
-10.35
-10.49
-10.55
-10.59
-10.56
-10.52
-10.58
-10.61
-10.65
-10.73
-10.82
-10.89
-10.94
-10.96
-10.97
-10.99
-10.98
-10.96
-10.96
-10.99
-11.1
-11.35
-11.59
-11.63
-11.34
-11
-10.71
-10.44
-9.19
-6.46
-2.22
2.24
5.65
6.73
4.96
1.28
-3.2
-6.85
-9.42
-10.99
-11.75
-11.84
-11.39
-10.85
-10.41
-10.19
-10.24
-10.42
-10.59
-10.69
-10.76
-10.81
-10.88
-10.98
-11.07
-11.08
-11.1
-11.17
-11.23
-11.3
-11.4
-11.44
-11.46
-11.48
-11.44
-11.45
-11.54
-11.62
-11.72
-11.82
-11.9
-11.97
-12.09
-12.26
-12.43
-12.57
-12.58
-12.51
-12.39
-12.33
-12.35
-12.41
-12.51
-12.57
-12.59
-12.55
-12.54
-12.55
-12.53
-12.52
-12.5
-12.5
-12.5
-12.5
-12.47
-12.43
-12.36
-12.26
-12.16
-12.07
-11.98
-11.89
-11.81
-11.76
-11.73
-11.73
-11.78
-11.82
-11.82
-11.72
-11.59
-11.5
-11.42
-11.42
-11.52
-11.61
-11.72
-11.8
-11.89
-12.02
-12.16
-12.26
-12.43
-12.6
-12.75
-12.98
-13.18
-13.29
-13.35
-13.3
-13.25
-13.29
-13.36
-13.46
-13.6
-13.69
-13.7
-13.71
-13.64
-13.5
-13.42
-13.38
-13.38
-13.46
-13.52
-13.54
-13.56
-13.54
-13.47
-13.39
-13.3
-13.23
-13.23
-13.29
-13.31
-13.35
-13.32
-13.22
-13.19
-13.2
-13.21
-13.26
-13.28
-13.14
-13.04
-12.95
-12.88
-12.91
-12.83
-12.71
-12.59
-12.43
-12.31
-12.25
-12.17
-12.11
-12.03
-11.93
-11.91
-11.93
-11.97
-12.07
-12.23
-12.46
-12.72
-12.97
-13.2
-13.32
-13.36
-13.34
-13.24
-13.14
-13.04
-12.93
-12.85
-12.73
-12.58
-12.46
-12.35
-12.2
-12.11
-11.99
-11.87
-11.77
-11.64
-11.45
-11.25
-11.01
-10.74
-10.46
-10.25
-10.15
-9.98
-9.72
-9.52
-9.35
-9.13
-8.92
-8.7
-8.57
-8.62
-8.7
-8.96
-9.36
-9.59
-9.61
-9.55
-9.48
-9.59
-9.79
-10.02
-10.25
-10.38
-10.42
-10.42
-10.41
-10.44
-10.46
-10.45
-10.39
-10.31
-10.24
-10.17
-10.04
-9.94
-9.91
-9.97
-10.11
-10.18
-10.03
-9.71
-9.4
-9.19
-8.42
-6.46
-2.95
1.32
5.24
7.48
7.04
4.43
0.4
-3.3
-6.12
-7.92
-8.87
-9.14
-8.89
-8.44
-8
-7.71
-7.65
-7.73
-7.79
-7.75
-7.62
-7.44
-7.34
-7.38
-7.34
-7.13
-6.85
-6.41
-6.11
-6.04
-6.08
-6.22
-6.37
-6.27
-6.04
-5.93
-5.85
-5.78
-5.78
-5.84
-5.88
-5.94
-5.98
-5.9
-5.78
-5.61
-5.44
-5.37
-5.43
-5.41
-5.37
-5.28
-5.16
-5.02
-4.93
-4.87
-4.81
-4.69
-4.56
-4.39
-4.22
-4.08
-3.91
-3.73
-3.5
-3.24
-2.97
-2.72
-2.49
-2.31
-2.09
-1.88
-1.68
-1.49
-1.32
-1.14
-0.93
-0.71
-0.5
-0.29
-0.17
-0.18
-0.18
-0.21
-0.22
-0.27
-0.36
-0.44
-0.46
-0.45
-0.42
-0.33
-0.35
-0.46
-0.66
-0.84
-0.93
-0.96
-0.82
-0.59
-0.48
-0.45
-0.6
-0.83
-1.02
-1.11
-1.09
-0.95
-0.9
-0.97
-1.08
-1.17
-1.24
-1.26
-1.23
-1.17
-1.12
-1.05
-1
-0.94
-0.88
-0.83
-0.76
-0.67
-0.55
-0.47
-0.43
-0.43
-0.46
-0.48
-0.46
-0.42
-0.35
-0.26
-0.21
-0.19
-0.14
-0.07
0.01
0.09
0.16
0.17
0.16
0.12
0.1
0.12
0.12
0.09
0.05
-0.01
-0.09
-0.18
-0.26
-0.29
-0.29
-0.17
0.08
0.31
0.5
0.57
0.46
0.32
0.28
0.34
0.52
0.74
0.8
0.8
0.8
0.78
0.81
0.95
0.99
0.97
0.9
0.82
0.81
0.85
0.92
1.05
1.17
1.24
1.26
1.24
1.11
0.89
0.59
0.29
0.01
-0.24
-0.41
-0.49
-0.53
-0.56
-0.58
-0.56
-0.54
-0.51
-0.46
-0.42
-0.36
-0.33
-0.3
-0.23
-0.17
-0.07
0.03
0.05
-0.11
-0.42
-0.76
-0.81
-0.61
-0.35
-0.14
0.36
1.86
4.89
8.82
12.86
15.29
15.4
13
9.22
5.36
2.41
0.44
-0.72
-1.15
-1.11
-0.77
-0.3
-0.03
0.09
0.04
-0.09
-0.16
-0.2
-0.23
-0.32
-0.42
-0.5
-0.6
-0.65
-0.7
-0.76
-0.81
-0.81
-0.8
-0.79
-0.79
-0.79
-0.79
-0.76
-0.74
-0.74
-0.71
-0.67
-0.61
-0.51
-0.39
-0.26
-0.13
-0.02
0.04
0.12
0.18
0.21
0.26
0.29
0.33
0.37
0.45
0.54
0.65
0.73
0.75
0.76
0.77
0.8
0.88
0.93
0.94
0.93
0.89
0.86
0.94
1.05
1.12
1.21
1.21
1.13
1.09
1.04
1.05
1.2
1.34
1.44
1.51
1.46
1.29
1.06
0.81
0.61
0.44
0.31
0.12
-0.06
-0.24
-0.47
-0.7
-0.86
-0.95
-1.06
-1.19
-1.33
-1.47
-1.57
-1.67
-1.72
-1.74
-1.76
-1.83
-1.89
-1.95
-2.01
-2.06
-2.09
-2.09
-2.11
-2.15
-2.21
-2.3
-2.4
-2.5
-2.6
-2.63
-2.67
-2.72
-2.76
-2.89
-3.01
-3.14
-3.31
-3.43
-3.52
-3.62
-3.73
-3.81
-3.83
-3.83
-3.86
-3.94
-4.01
-4.14
-4.26
-4.39
-4.51
-4.63
-4.81
-4.97
-5.12
-5.28
-5.42
-5.51
-5.6
-5.72
-5.85
-5.99
-6.15
-6.28
-6.37
-6.43
-6.51
-6.65
-6.81
-6.92
-6.99
-7.02
-7.08
-7.15
-7.27
-7.32
-7.31
-7.24
-7.2
-7.21
-7.21
-7.24
-7.3
-7.39
-7.55
-7.84
-8.26
-8.68
-9.04
-9.28
-9.44
-9.52
-9.55
-9.63
-9.75
-9.88
-10.02
-10.13
-10.24
-10.37
-10.5
-10.66
-10.82
-10.95
-11.08
-11.17
-11.23
-11.28
-11.47
-11.76
-12.12
-12.45
-12.53
-12.31
-12.1
-11.99
-11.75
-10.34
-7.44
-3.2
0.82
3.38
3.44
0.88
-3.2
-7.56
-10.73
-12.78
-13.87
-14.28
-14.18
-13.74
-13.35
-13.1
-13.03
-13.17
-13.41
-13.59
-13.7
-13.78
-13.86
-13.96
-14.07
-14.13
-14.18
-14.2
-14.23
-14.29
-14.33
-14.39
-14.46
-14.51
-14.55
-14.62
-14.66
-14.64
-14.63
-14.62
-14.64
-14.66
-14.64
-14.63
-14.58
-14.52
-14.49
-14.5
-14.52
-14.54
-14.52
-14.38
-14.23
-14.08
-13.99
-13.96
-14.01
-14.08
-14.09
-14.01
-13.85
-13.63
-13.44
-13.33
-13.29
-13.33
-13.41
-13.39
-13.33
-13.27
-13.19
-13.13
-13.09
-13.06
-13.01
-12.96
-12.92
-12.9
-12.86
-12.83
-12.8
-12.82
-12.91
-13.05
-13.23
-13.41
-13.55
-13.64
-13.69
-13.69
-13.69
-13.73
-13.74
-13.8
-13.84
-13.84
-13.81
-13.79
-13.75
-13.72
-13.72
-13.7
-13.68
-13.68
-13.69
-13.71
-13.77
-13.8
-13.75
-13.69
-13.66
-13.61
-13.64
-13.69
-13.68
-13.66
-13.69
-13.71
-13.77
-13.84
-13.84
-13.85
-13.83
-13.8
-13.83
-13.89
-13.96
-14.02
-14.07
-14.11
-14.14
-14.13
-14.11
-14.09
-14.06
-14.06
-14.07
-14.07
-14.04
-13.98
-13.92
-13.87
-13.82
-13.77
-13.76
-13.79
-13.83
-13.91
-14.01
-14.07
-14.1
-14.08
-14.01
-13.91
-13.77
-13.63
-13.53
-13.45
-13.41
-13.36
-13.26
-13.1
-12.9
-12.72
-12.54
-12.36
-12.23
-12.13
-12.09
-12.11
-12.24
-12.42
-12.64
-12.75
-12.8
-12.81
-12.81
-12.77
-12.79
-12.84
-12.91
-12.94
-12.92
-12.93
-12.97
-12.98
-12.99
-13.02
-13.02
-13.03
-13.01
-12.96
-12.87
-12.82
-12.9
-13.11
-13.41
-13.47
-13.25
-12.85
-12.5
-11.96
-10.63
-7.67
-3.46
1.23
4.53
5.52
3.62
-0.22
-4.68
-8.51
-11.06
-12.58
-13.12
-12.95
-12.3
-11.49
-10.92
-10.6
-10.55
-10.61
-10.63
-10.55
-10.41
-10.28
-10.17
-10.1
-10.08
-10.07
-10.05
-10
-9.94
-9.86
-9.78
-9.71
-9.62
-9.5
-9.39
-9.29
-9.18
-9.09
-8.97
-8.83
-8.69
-8.54
-8.4
-8.26
-8.09
-7.93
-7.79
-7.66
-7.55
-7.42
-7.3
-7.16
-7.06
-6.97
-6.9
-6.84
-6.75
-6.61
-6.48
-6.36
-6.23
-6.15
-6.03
-5.9
-5.78
-5.67
-5.57
-5.49
-5.41
-5.34
-5.26
-5.2
-5.14
-5.09
-5.04
-4.95
-4.85
-4.75
-4.63
-4.54
-4.49
-4.45
-4.48
-4.56
-4.65
-4.77
-4.85
-4.91
-4.96
-5.01
-5.06
-5.13
-5.21
-5.27
-5.34
-5.39
-5.45
-5.51
-5.57
-5.64
-5.69
-5.7
-5.7
-5.66
-5.61
-5.58
-5.58
-5.59
-5.61
-5.64
-5.67
-5.7
-5.75
-5.74
-5.69
-5.61
-5.51
-5.48
-5.49
-5.55
-5.62
-5.67
-5.67
-5.68
-5.65
-5.62
-5.62
-5.65
-5.69
-5.74
-5.78
-5.83
-5.85
-5.87
-5.88
-5.86
-5.83
-5.83
-5.84
-5.87
-5.85
-5.79
-5.74
-5.64
-5.54
-5.49
-5.49
-5.52
-5.58
-5.61
-5.66
-5.71
-5.69
-5.64
-5.55
-5.46
-5.41
-5.39
-5.4
-5.47
-5.54
-5.57
-5.56
-5.5
-5.4
-5.28
-5.16
-5.12
-5.09
-5.04
-4.92
-4.81
-4.67
-4.54
-4.44
-4.37
-4.32
-4.33
-4.42
-4.62
-4.9
-5.17
-5.38
-5.48
-5.49
-5.41
-5.32
-5.22
-5.09
-4.98
-4.88
-4.77
-4.68
-4.62
-4.53
-4.51
-4.5
-4.46
-4.46
-4.4
-4.26
-4.11
-4.07
-4.19
-4.48
-4.8
-4.75
-4.42
-3.98
-3.48
-2.65
-0.63
3.2
8.08
12.96
15.78
15.74
12.56
7.78
2.84
-0.99
-3.37
-4.64
-4.96
-4.65
-4.02
-3.4
-2.98
-2.79
-2.8
-2.84
-2.86
-2.8
-2.75
-2.7
-2.66
-2.61
-2.55
-2.48
-2.41
-2.39
-2.41
-2.42
-2.41
-2.41
-2.39
-2.37
-2.34
-2.33
-2.33
-2.3
-2.22
-2.14
-2.05
-2.01
-2.02
-2.05
-2.08
-2.1
-2.11
-2.08
-2.05
-2.02
-1.97
-1.91
-1.84
-1.74
-1.66
-1.61
-1.52
-1.48
-1.46
-1.44
-1.41
-1.35
-1.25
-1.16
-1.09
-1.02
-0.94
-0.89
-0.82
-0.75
-0.68
-0.61
-0.55
-0.49
-0.43
-0.39
-0.35
-0.3
-0.25
-0.23
-0.24
-0.26
-0.3
-0.36
-0.42
-0.49
-0.54
-0.59
-0.69
-0.79
-0.89
-1.02
-1.11
-1.16
-1.2
-1.24
-1.27
-1.3
-1.31
-1.32
-1.34
-1.33
-1.33
-1.34
-1.32
-1.28
-1.21
-1.16
-1.14
-1.1
-1.02
-0.96
-0.91
-0.87
-0.86
-0.88
-0.88
-0.86
-0.83
-0.8
-0.81
-0.83
-0.83
-0.82
-0.81
-0.81
-0.8
-0.82
-0.84
-0.86
-0.87
-0.85
-0.8
-0.74
-0.69
-0.67
-0.69
-0.75
-0.82
-0.81
-0.72
-0.63
-0.61
-0.64
-0.74
-0.86
-0.96
-0.98
-0.96
-0.97
-1.04
-1.14
-1.2
-1.25
-1.35
-1.39
-1.41
-1.46
-1.46
-1.45
-1.45
-1.44
-1.45
-1.48
-1.51
-1.59
-1.67
-1.67
-1.68
-1.62
-1.54
-1.52
-1.56
-1.62
-1.72
-1.78
-1.78
-1.84
-1.87
-1.79
-1.75
-1.79
-1.89
-2.08
-2.26
-2.33
-2.34
-2.27
-2.13
-1.98
-1.84
-1.67
-1.52
-1.45
-1.44
-1.44
-1.43
-1.41
-1.4
-1.55
-1.83
-2.14
-2.4
-2.55
-2.59
-2.61
-2.62
-2.67
-2.78
-2.85
-2.89
-2.93
-2.91
-2.91
-2.94
-2.98
-3.02
-3.08
-3.06
-2.93
-2.74
-2.64
-2.71
-3.05
-3.57
-4.04
-4.22
-3.99
-3.58
-3.14
-2.48
-0.84
2.64
7.59
12.83
16.94
17.94
15.68
10.68
5.04
0.19
-3
-4.6
-4.97
-4.49
-3.76
-3.14
-2.87
-2.77
-2.86
-3.06
-3.14
-3.16
-3.21
-3.23
-3.28
-3.3
-3.15
-3.01
-2.94
-2.88
-2.91
-3.02
-3.1
-3.18
-3.16
-3.09
-3.08
-3.1
-3.08
-3.1
-3.06
-2.96
-2.84
-2.66
-2.53
-2.49
-2.48
-2.52
-2.55
-2.52
-2.44
-2.35
-2.27
-2.14
-1.98
-1.77
-1.6
-1.49
-1.47
-1.45
-1.45
-1.37
-1.22
-1.07
-0.96
-0.86
-0.73
-0.65
-0.51
-0.35
-0.23
-0.11
-0.01
0.04
0.14
0.22
0.27
0.38
0.5
0.61
0.72
0.81
0.87
0.92
0.93
0.88
0.82
0.74
0.67
0.63
0.62
0.57
0.54
0.48
0.34
0.23
0.13
0.06
0.04
0.01
0
0.06
0.1
0.1
0.13
0.1
0.05
-0.02
-0.12
-0.16
-0.11
-0.04
0.03
0.1
0.14
0.14
0.17
0.26
0.36
0.44
0.49
0.46
0.37
0.29
0.25
0.29
0.38
0.43
0.47
0.5
0.52
0.55
0.6
0.64
0.64
0.61
0.55
0.51
0.5
0.52
0.57
0.63
0.71
0.76
0.77
0.78
0.78
0.76
0.73
0.7
0.69
0.72
0.79
0.87
0.93
0.97
0.98
0.95
0.94
0.92
0.88
0.85
0.85
0.89
1.03
1.2
1.31
1.38
1.36
1.24
1.17
1.16
1.23
1.34
1.44
1.5
1.56
1.58
1.57
1.56
1.56
1.53
1.5
1.48
1.45
1.47
1.51
1.58
1.67
1.73
1.73
1.73
1.71
1.74
1.79
1.82
1.85
1.88
1.89
1.88
1.9
1.9
1.91
1.91
1.95
2.05
2.14
2.19
2.21
2.24
2.24
2.26
2.34
2.41
2.51
2.61
2.69
2.82
2.96
3.11
3.27
3.41
3.52
3.65
3.77
3.83
3.84
3.66
3.4
3.12
2.92
2.8
2.79
2.79
2.76
2.67
2.57
2.52
2.52
2.55
2.56
2.57
2.63
2.66
2.68
2.71
2.75
2.78
2.85
2.87
2.83
2.63
2.25
1.82
1.7
1.86
2.2
2.6
3.38
5.3
9.09
14.13
19.46
22.89
23.43
20.57
15.7
10.38
6.07
3.42
2.09
1.83
2.22
2.92
3.61
4.07
4.27
4.21
4.1
4.02
4.02
4.05
4.11
4.23
4.38
4.55
4.67
4.71
4.67
4.59
4.55
4.59
4.69
4.82
4.93
4.99
5.04
5.1
5.2
5.35
5.49
5.62
5.74
5.85
6.01
6.18
6.32
6.46
6.57
6.67
6.76
6.91
7.06
7.2
7.3
7.37
7.44
7.55
7.66
7.79
7.93
8.07
8.19
8.33
8.48
8.67
8.88
9.02
9.14
9.23
9.25
9.26
9.27
9.31
9.39
9.5
9.6
9.74
9.9
10.03
10.15
10.26
10.34
10.38
10.36
10.31
10.25
10.18
10.11
10.03
9.96
9.88
9.83
9.82
9.8
9.74
9.66
9.58
9.5
9.44
9.41
9.43
9.46
9.51
9.58
9.69
9.77
9.79
9.76
9.73
9.71
9.7
9.74
9.77
9.82
9.85
9.88
9.91
9.97
10.04
10.13
10.18
10.21
10.19
10.12
10.06
10
9.97
9.97
9.98
10.01
10.04
10.09
10.14
10.14
10.14
10.13
10.1
10.09
10.09
10.06
10.04
10
9.95
9.94
9.94
9.94
9.96
10.01
10.07
10.12
10.14
10.13
10.13
10.1
10.11
10.18
10.23
10.25
10.25
10.2
10.12
10.02
9.92
9.85
9.84
9.86
9.9
9.94
9.92
9.86
9.82
9.82
9.87
9.96
10.03
10.09
10.13
10.1
10.02
9.89
9.77
9.64
9.59
9.58
9.62
9.66
9.63
9.54
9.45
9.35
9.26
9.22
9.21
9.21
9.25
9.27
9.3
9.32
9.33
9.37
9.45
9.5
9.54
9.55
9.5
9.46
9.38
9.33
9.33
9.35
9.39
9.46
9.52
9.53
9.52
9.49
9.48
9.48
9.48
9.5
9.52
9.54
9.56
9.56
9.57
9.56
9.49
9.43
9.36
9.32
9.32
9.34
9.36
9.4
9.42
9.41
9.42
9.43
9.45
9.46
9.46
9.48
9.5
9.52
9.56
9.6
9.65
9.69
9.74
9.79
9.88
10.01
10.15
10.27
10.41
10.51
10.57
10.59
10.55
10.39
10.15
9.88
9.67
9.56
9.51
9.53
9.55
9.53
9.49
9.45
9.41
9.39
9.34
9.24
9.14
9.06
9.01
9.03
9.09
9.14
9.21
9.21
9.07
8.78
8.38
8.04
8.02
8.28
8.62
9.02
10.01
12.33
16.54
21.67
26.38
29.11
28.47
24.97
19.6
14.49
10.62
8.36
7.31
7.14
7.58
8.21
8.77
9.06
9.08
8.92
8.73
8.62
8.58
8.6
8.64
8.66
8.65
8.63
8.62
8.57
8.53
8.49
8.45
8.44
8.45
8.45
8.46
8.44
8.39
8.37
8.35
8.39
8.48
8.56
8.6
8.61
8.57
8.55
8.54
8.51
8.48
8.44
8.38
8.36
8.35
8.35
8.39
8.39
8.35
8.32
8.3
8.31
8.3
8.3
8.28
8.23
8.2
8.17
8.17
8.18
8.16
8.11
8.08
8.06
8.06
8.07
8.03
7.98
7.92
7.88
7.87
7.9
7.94
7.97
7.97
7.95
7.89
7.82
7.7
7.53
7.33
7.12
6.93
6.76
6.61
6.45
6.3
6.12
5.94
5.78
5.66
5.59
5.53
5.47
5.39
5.3
5.2
5.12
5.03
4.98
4.94
4.93
4.91
4.9
4.89
4.85
4.82
4.77
4.71
4.67
4.64
4.61
4.57
4.53
4.47
4.42
4.34
4.24
4.16
4.07
3.97
3.91
3.86
3.81
3.77
3.72
3.63
3.57
3.49
3.44
3.4
3.36
3.27
3.14
3.03
2.9
2.78
2.69
2.62
2.55
2.48
2.41
2.32
2.24
2.17
2.11
2.05
1.95
1.85
1.75
1.64
1.56
1.48
1.4
1.36
1.35
1.33
1.31
1.25
1.16
1.03
0.93
0.84
0.8
0.82
0.84
0.83
0.79
0.7
0.57
0.46
0.35
0.26
0.2
0.12
0.03
0
0.01
0.02
0.03
0.02
0.04
0.08
0.11
0.15
0.15
0.12
0.06
0.03
0.04
0.04
0.04
0.03
0.01
0.02
0.05
0.09
0.12
0.09
0.03
0
-0.02
0
0.03
0.04
0.07
0.05
0.03
0.06
0.07
0.1
0.12
0.13
0.11
0.12
0.12
0.11
0.1
0.05
-0.01
-0.04
-0.03
0.01
0.06
0.12
0.17
0.18
0.18
0.18
0.18
0.19
0.19
0.18
0.16
0.14
0.13
0.1
0.08
0.05
0.01
-0.02
-0.03
0.01
0.07
0.12
0.17
0.23
0.31
0.4
0.48
0.54
0.6
0.67
0.76
0.89
1.06
1.22
1.37
1.48
1.58
1.57
1.49
1.31
1.04
0.81
0.66
0.6
0.6
0.61
0.59
0.53
0.47
0.43
0.43
0.46
0.5
0.54
0.55
0.55
0.53
0.53
0.54
0.59
0.69
0.66
0.48
0.09
-0.3
-0.43
-0.2
0.15
0.61
1.31
3.3
6.98
12.12
17.07
20.35
20.59
17.63
12.75
7.35
3.31
0.75
-0.44
-0.69
-0.34
0.37
1.06
1.53
1.72
1.72
1.61
1.53
1.56
1.59
1.65
1.74
1.8
1.86
1.93
2
2.11
2.18
2.24
2.28
2.29
2.3
2.35
2.41
2.47
2.54
2.56
2.59
2.65
2.7
2.73
2.77
2.77
2.79
2.89
2.99
3.11
3.21
3.27
3.31
3.37
3.43
3.47
3.52
3.54
3.56
3.63
3.73
3.81
3.89
3.9
3.9
3.94
3.98
4.01
4.08
4.13
4.17
4.23
4.31
4.39
4.49
4.58
4.66
4.71
4.75
4.77
4.8
4.86
4.94
5.02
5.06
5.06
4.99
4.89
4.76
4.64
4.53
4.42
4.31
4.21
4.11
4.02
3.92
3.82
3.72
3.62
3.53
3.47
3.42
3.38
3.34
3.32
3.29
3.28
3.28
3.26
3.24
3.27
3.31
3.38
3.43
3.45
3.46
3.47
3.47
3.51
3.53
3.54
3.56
3.55
3.52
3.52
3.52
3.55
3.58
3.6
3.58
3.54
3.47
3.38
3.32
3.3
3.3
3.33
3.36
3.38
3.41
3.42
3.41
3.4
3.39
3.37
3.33
3.32
3.31
3.34
3.35
3.33
3.31
3.28
3.24
3.22
3.22
3.21
3.19
3.17
3.14
3.1
3.06
3.03
3.01
3.03
3.06
3.08
3.14
3.22
3.24
3.24
3.2
3.12
3.07
3.05
3.06
3.09
3.11
3.09
3.07
3.08
3.09
3.09
3.07
3.04
3
2.98
3
3.02
3.05
3.1
3.11
3.1
3.08
3.01
2.95
2.9
2.86
2.83
2.82
2.79
2.78
2.81
2.83
2.85
2.87
2.86
2.82
2.83
2.81
2.81
2.81
2.81
2.79
2.77
2.73
2.71
2.67
2.66
2.64
2.66
2.68
2.68
2.67
2.66
2.65
2.64
2.64
2.63
2.64
2.63
2.62
2.63
2.62
2.59
2.55
2.52
2.48
2.46
2.46
2.45
2.47
2.47
2.46
2.44
2.38
2.31
2.26
2.23
2.25
2.31
2.37
2.43
2.48
2.51
2.57
2.63
2.68
2.74
2.85
2.96
3.06
3.16
3.25
3.34
3.43
3.46
3.39
3.22
2.96
2.68
2.48
2.42
2.42
2.46
2.45
2.38
2.3
2.26
2.21
2.19
2.18
2.17
2.15
2.15
2.19
2.25
2.29
2.33
2.34
2.22
1.94
1.49
1.1
1
1.28
1.67
2.16
2.86
4.83
8.43
13.52
18.4
21.65
21.91
18.97
14.1
8.67
4.51
1.81
0.46
0.06
0.33
1.06
1.74
2.2
2.36
2.25
2.04
1.89
1.86
1.9
2
2.02
2.01
2
1.98
1.98
2.01
2.03
2.06
2.09
2.08
2.05
2.04
2.02
1.99
2.02
2.05
2.05
2.05
2.02
2
1.99
2.03
2.07
2.13
2.17
2.18
2.2
2.23
2.23
2.23
2.23
2.22
2.25
2.26
2.27
2.29
2.27
2.24
2.22
2.22
2.22
2.25
2.26
2.25
2.26
2.27
2.29
2.35
2.42
2.46
2.5
2.53
2.54
2.6
2.65
2.67
2.72
2.72
2.7
2.68
2.61
2.52
2.42
2.26
2.1
1.93
1.77
1.6
1.43
1.28
1.12
0.98
0.83
0.68
0.51
0.33
0.14
0.01
-0.06
-0.1
-0.09
-0.07
-0.06
-0.04
-0.07
-0.09
-0.11
-0.13
-0.17
-0.18
-0.16
-0.14
-0.11
-0.08
-0.05
-0.03
-0.03
-0.02
0
0.03
0.06
0.08
0.08
0.07
0.05
0.03
0
0
-0.01
-0.03
-0.01
-0.01
-0.01
0
-0.05
-0.13
-0.22
-0.31
-0.39
-0.43
-0.42
-0.39
-0.35
-0.31
-0.28
-0.27
-0.32
-0.37
-0.41
-0.43
-0.43
-0.41
-0.4
-0.35
-0.28
-0.24
-0.23
-0.27
-0.36
-0.41
-0.42
-0.4
-0.36
-0.34
-0.39
-0.45
-0.47
-0.49
-0.47
-0.43
-0.43
-0.43
-0.45
-0.45
-0.43
-0.38
-0.35
-0.34
-0.33
-0.4
-0.48
-0.53
-0.56
-0.55
-0.47
-0.41
-0.35
-0.31
-0.29
-0.25
-0.19
-0.15
-0.13
-0.12
-0.12
-0.13
-0.16
-0.16
-0.16
-0.14
-0.13
-0.14
-0.16
-0.22
-0.28
-0.33
-0.31
-0.27
-0.2
-0.18
-0.16
-0.16
-0.17
-0.15
-0.13
-0.13
-0.13
-0.12
-0.1
-0.08
-0.06
-0.07
-0.08
-0.1
-0.12
-0.12
-0.12
-0.13
-0.15
-0.14
-0.14
-0.14
-0.15
-0.15
-0.13
-0.09
-0.07
-0.04
-0.01
-0.02
-0.02
-0.02
-0.02
-0.02
-0.02
-0.02
0
0
-0.02
-0.04
-0.07
-0.1
-0.08
-0.01
0.08
0.17
0.23
0.25
0.26
0.29
0.39
0.53
0.69
0.82
0.91
0.98
1
0.99
0.97
0.84
0.62
0.36
0.13
-0.03
-0.09
-0.09
-0.07
-0.06
-0.09
-0.15
-0.22
-0.28
-0.34
-0.36
-0.37
-0.42
-0.48
-0.53
-0.57
-0.54
-0.48
-0.48
-0.6
-0.91
-1.32
-1.6
-1.49
-1.15
-0.72
-0.11
1.24
4.22
8.82
13.88
18.09
19.48
17.76
13.28
8.03
3.35
0.17
-1.64
-2.45
-2.41
-1.95
-1.32
-0.76
-0.47
-0.41
-0.53
-0.67
-0.77
-0.83
-0.86
-0.87
-0.82
-0.78
-0.74
-0.73
-0.74
-0.75
-0.72
-0.69
-0.68
-0.65
-0.64
-0.66
-0.64
-0.63
-0.64
-0.68
-0.68
-0.68
-0.67
-0.59
-0.5
-0.38
-0.29
-0.29
-0.3
-0.31
-0.3
-0.25
-0.19
-0.13
-0.07
-0.02
0.01
0.09
0.16
0.2
0.21
0.2
0.22
0.28
0.35
0.45
0.58
0.65
0.7
0.72
0.73
0.77
0.86
0.96
1.08
1.21
1.27
1.3
1.35
1.39
1.46
1.5
1.53
1.54
1.52
1.51
1.49
1.42
1.27
1.12
0.96
0.8
0.67
0.54
0.38
0.2
0.01
-0.12
-0.21
-0.27
-0.32
-0.36
-0.42
-0.5
-0.58
-0.63
-0.65
-0.66
-0.68
-0.7
-0.73
-0.76
-0.8
-0.84
-0.86
-0.87
-0.88
-0.89
-0.89
-0.88
-0.87
-0.87
-0.87
-0.85
-0.86
-0.87
-0.88
-0.9
-0.88
-0.84
-0.85
-0.89
-0.97
-1.07
-1.13
-1.15
-1.15
-1.14
-1.15
-1.21
-1.24
-1.23
-1.2
-1.21
-1.21
-1.25
-1.34
-1.4
-1.46
-1.49
-1.47
-1.48
-1.5
-1.48
-1.5
-1.54
-1.54
-1.55
-1.6
-1.64
-1.66
-1.63
-1.6
-1.59
-1.6
-1.63
-1.66
-1.67
-1.64
-1.6
-1.58
-1.59
-1.59
-1.59
-1.58
-1.56
-1.58
-1.63
-1.69
-1.77
-1.83
-1.85
-1.86
-1.84
-1.8
-1.8
-1.76
-1.74
-1.76
-1.79
-1.83
-1.88
-1.88
-1.87
-1.84
-1.76
-1.71
-1.71
-1.76
-1.85
-1.93
-1.97
-1.95
-1.87
-1.81
-1.79
-1.79
-1.77
-1.74
-1.68
-1.61
-1.53
-1.51
-1.49
-1.47
-1.45
-1.4
-1.41
-1.41
-1.39
-1.36
-1.35
-1.35
-1.36
-1.39
-1.4
-1.41
-1.36
-1.32
-1.29
-1.25
-1.24
-1.27
-1.27
-1.27
-1.27
-1.26
-1.25
-1.25
-1.21
-1.14
-1.04
-0.91
-0.82
-0.76
-0.71
-0.68
-0.65
-0.57
-0.45
-0.3
-0.15
0.02
0.15
0.25
0.34
0.33
0.25
0.06
-0.2
-0.47
-0.66
-0.79
-0.85
-0.84
-0.85
-0.83
-0.77
-0.74
-0.71
-0.71
-0.76
-0.8
-0.8
-0.8
-0.76
-0.69
-0.64
-0.59
-0.62
-0.79
-1.09
-1.48
-1.72
-1.62
-1.17
-0.65
-0.02
1.02
3.6
7.77
12.98
17.43
19.79
18.97
15.39
10.41
5.41
1.85
-0.45
-1.69
-2.12
-1.92
-1.29
-0.66
-0.19
0.01
-0.04
-0.19
-0.32
-0.39
-0.41
-0.4
-0.4
-0.38
-0.33
-0.29
-0.24
-0.21
-0.19
-0.16
-0.11
-0.04
0.03
0.09
0.15
0.2
0.23
0.26
0.29
0.3
0.29
0.3
0.33
0.34
0.36
0.38
0.42
0.49
0.56
0.6
0.63
0.64
0.68
0.76
0.86
0.98
1.09
1.16
1.19
1.21
1.23
1.27
1.34
1.4
1.45
1.51
1.64
1.74
1.82
1.89
1.93
1.99
2.06
2.13
2.21
2.29
2.34
2.4
2.49
2.55
2.62
2.68
2.67
2.61
2.51
2.37
2.19
2.05
1.91
1.82
1.71
1.53
1.34
1.17
1.01
0.89
0.83
0.78
0.73
0.7
0.65
0.57
0.47
0.34
0.27
0.24
0.23
0.22
0.21
0.17
0.16
0.18
0.22
0.28
0.31
0.29
0.24
0.2
0.17
0.19
0.2
0.21
0.2
0.14
0.04
-0.05
-0.12
-0.19
-0.23
-0.26
-0.3
-0.33
-0.35
-0.37
-0.38
-0.38
-0.43
-0.46
-0.5
-0.57
-0.63
-0.67
-0.74
-0.77
-0.81
-0.88
-0.97
-1.07
-1.21
-1.34
-1.43
-1.49
-1.54
-1.61
-1.68
-1.74
-1.79
-1.85
-1.89
-1.92
-1.96
-2.02
-2.07
-2.09
-2.1
-2.1
-2.13
-2.14
-2.16
-2.2
-2.23
-2.26
-2.31
-2.36
-2.42
-2.47
-2.52
-2.54
-2.54
-2.56
-2.55
-2.55
-2.56
-2.57
-2.63
-2.69
-2.74
-2.75
-2.75
-2.75
-2.76
-2.8
-2.89
-2.96
-3.02
-3.05
-3.03
-3.01
-3.01
-3.02
-3.04
-3.06
-3.08
-3.08
-3.06
-3.03
-3.01
-2.99
-3
-2.98
-2.96
-2.98
-3
-3.05
-3.09
-3.1
-3.09
-3.11
-3.14
-3.17
-3.21
-3.22
-3.19
-3.14
-3.09
-3.09
-3.14
-3.2
-3.28
-3.33
-3.35
-3.33
-3.34
-3.35
-3.37
-3.4
-3.43
-3.45
-3.5
-3.53
-3.55
-3.58
-3.56
-3.56
-3.6
-3.63
-3.68
-3.71
-3.71
-3.67
-3.65
-3.62
-3.63
-3.7
-3.77
-3.81
-3.78
-3.69
-3.54
-3.42
-3.33
-3.25
-3.26
-3.27
-3.3
-3.47
-3.78
-4.16
-4.55
-4.83
-4.95
-5.01
-5.04
-5.05
-5.13
-5.25
-5.34
-5.44
-5.51
-5.59
-5.72
-5.87
-5.99
-6.1
-6.17
-6.2
-6.24
-6.32
-6.56
-6.98
-7.46
-7.86
-7.9
-7.68
-7.34
-6.89
-5.84
-3.38
0.96
6.25
11.31
13.91
13.35
9.5
4.09
-1.3
-5.34
-7.71
-8.8
-8.89
-8.46
-7.83
-7.29
-7
-6.97
-7.13
-7.29
-7.39
-7.4
-7.38
-7.4
-7.41
-7.47
-7.52
-7.55
-7.54
-7.5
-7.47
-7.43
-7.41
-7.38
-7.35
-7.34
-7.32
-7.33
-7.33
-7.34
-7.35
-7.37
-7.38
-7.4
-7.42
-7.39
-7.37
-7.35
-7.33
-7.34
-7.34
-7.35
-7.32
-7.3
-7.26
-7.23
-7.21
-7.19
-7.17
-7.17
-7.13
-7.07
-7
-6.96
-6.95
-6.95
-6.97
-6.95
-6.91
-6.86
-6.83
-6.81
-6.8
-6.77
-6.72
-6.62
-6.52
-6.42
-6.37
-6.33
-6.29
-6.26
-6.21
-6.16
-6.14
-6.2
-6.32
-6.49
-6.66
-6.83
-6.98
-7.12
-7.25
-7.39
-7.53
-7.67
-7.83
-7.98
-8.12
-8.25
-8.41
-8.57
-8.69
-8.75
-8.78
-8.77
-8.78
-8.82
-8.92
-9.04
-9.14
-9.19
-9.2
-9.22
-9.21
-9.2
-9.19
-9.19
-9.18
-9.2
-9.18
-9.17
-9.17
-9.18
-9.19
-9.19
-9.18
-9.19
-9.19
-9.21
-9.22
-9.23
-9.23
-9.24
-9.25
-9.27
-9.29
-9.3
-9.27
-9.25
-9.24
-9.2
-9.21
-9.23
-9.21
-9.24
-9.24
-9.23
-9.26
-9.29
-9.31
-9.36
-9.38
-9.36
-9.32
-9.27
-9.25
-9.23
-9.21
-9.23
-9.23
-9.2
-9.16
-9.13
-9.13
-9.12
-9.16
-9.19
-9.21
-9.2
-9.18
-9.13
-9.1
-9.08
-9.06
-9.05
-9.06
-9.02
-9.01
-9.01
-8.98
-8.95
-8.93
-8.88
-8.86
-8.87
-8.89
-8.94
-8.96
-8.96
-8.96
-8.95
-8.95
-8.96
-8.97
-8.94
-8.91
-8.86
-8.86
-8.86
-8.84
-8.82
-8.77
-8.77
-8.78
-8.82
-8.88
-8.94
-8.95
-8.94
-8.88
-8.83
-8.79
-8.77
-8.77
-8.8
-8.82
-8.84
-8.86
-8.86
-8.86
-8.86
-8.82
-8.83
-8.86
-8.9
-8.94
-8.95
-8.91
-8.88
-8.85
-8.83
-8.83
-8.85
-8.85
-8.87
-8.88
-8.88
-8.88
-8.9
-8.89
-8.9
-8.93
-8.95
-8.97
-8.98
-8.98
-9
-9.03
-9.03
-9.03
-8.99
-8.91
-8.84
-8.78
-8.73
-8.67
-8.57
-8.43
-8.28
-8.12
-8.01
-7.95
-7.96
-8.05
-8.25
-8.51
-8.78
-9
-9.13
-9.2
-9.21
-9.21
-9.2
-9.25
-9.29
-9.33
-9.4
-9.45
-9.51
-9.52
-9.52
-9.49
-9.47
-9.46
-9.48
-9.52
-9.62
-9.85
-10.24
-10.65
-10.89
-10.82
-10.6
-10.33
-9.75
-8.16
-4.76
0.22
5.53
9.68
10.69
8.46
3.54
-2
-6.74
-9.81
-11.41
-11.93
-11.68
-11.1
-10.5
-10.07
-9.91
-9.97
-10.19
-10.37
-10.49
-10.54
-10.58
-10.6
-10.63
-10.67
-10.7
-10.7
-10.7
-10.71
-10.72
-10.75
-10.82
-10.86
-10.84
-10.79
-10.76
-10.75
-10.77
-10.83
-10.88
-10.88
-10.86
-10.83
-10.82
-10.8
-10.8
-10.81
-10.82
-10.83
-10.79
-10.77
-10.77
-10.77
-10.78
-10.79
-10.78
-10.74
-10.67
-10.61
-10.56
-10.53
-10.49
-10.46
-10.42
-10.36
-10.3
-10.2
-10.11
-10.04
-9.98
-9.95
-9.9
-9.85
-9.78
-9.7
-9.62
-9.59
-9.53
-9.45
-9.39
-9.33
-9.28
-9.29
-9.3
-9.31
-9.37
-9.43
-9.54
-9.69
-9.82
-9.96
-10.12
-10.25
-10.37
-10.48
-10.55
-10.62
-10.71
-10.8
-10.92
-11.02
-11.06
-11.07
-11.05
-11.01
-10.97
-10.96
-10.97
-10.97
-10.96
-10.94
-10.94
-10.94
-10.92
-10.87
-10.79
-10.69
-10.59
-10.52
-10.54
-10.6
-10.64
-10.65
-10.58
-10.48
-10.38
-10.34
-10.34
-10.33
-10.33
-10.31
-10.25
-10.18
-10.11
-10.06
-10.03
-10.01
-10.01
-10.03
-10.05
-10.05
-10.02
-9.97
-9.96
-9.94
-9.9
-9.92
-9.94
-9.98
-10.03
-10.04
-10.04
-10.04
-10.01
-9.98
-9.96
-9.96
-9.93
-9.88
-9.84
-9.81
-9.79
-9.79
-9.78
-9.76
-9.75
-9.75
-9.74
-9.72
-9.63
-9.55
-9.48
-9.44
-9.46
-9.51
-9.54
-9.52
-9.51
-9.47
-9.45
-9.44
-9.42
-9.42
-9.42
-9.41
-9.42
-9.39
-9.34
-9.29
-9.26
-9.23
-9.2
-9.16
-9.12
-9.09
-9.06
-9.03
-9
-8.96
-8.89
-8.86
-8.84
-8.82
-8.79
-8.74
-8.63
-8.55
-8.47
-8.43
-8.41
-8.39
-8.36
-8.33
-8.26
-8.2
-8.17
-8.13
-8.1
-8.06
-8.02
-7.96
-7.91
-7.82
-7.76
-7.72
-7.69
-7.65
-7.62
-7.58
-7.53
-7.48
-7.4
-7.32
-7.26
-7.17
-7.11
-7.08
-7.05
-7.03
-7.02
-6.99
-6.94
-6.89
-6.81
-6.74
-6.64
-6.55
-6.47
-6.42
-6.38
-6.3
-6.19
-6.07
-5.9
-5.68
-5.47
-5.29
-5.17
-5.15
-5.25
-5.45
-5.67
-5.84
-5.9
-5.93
-5.91
-5.87
-5.82
-5.79
-5.76
-5.74
-5.69
-5.66
-5.62
-5.56
-5.5
-5.45
-5.44
-5.42
-5.37
-5.29
-5.19
-5.23
-5.42
-5.76
-6.07
-6.12
-5.8
-5.37
-4.86
-4.05
-1.85
1.97
7.04
11.7
14.58
14.43
11.26
6.41
1.29
-2.44
-4.73
-5.78
-5.97
-5.62
-5
-4.47
-4.12
-4.03
-4.11
-4.22
-4.23
-4.17
-4.1
-4.03
-4
-3.98
-3.95
-3.93
-3.92
-3.88
-3.86
-3.84
-3.79
-3.71
-3.68
-3.64
-3.56
-3.48
-3.39
-3.29
-3.18
-3.1
-3
-2.89
-2.78
-2.67
-2.6
-2.56
-2.54
-2.49
-2.4
-2.26
-2.1
-1.97
-1.85
-1.78
-1.72
-1.67
-1.6
-1.55
-1.48
-1.42
-1.37
-1.29
-1.21
-1.1
-0.97
-0.83
-0.72
-0.65
-0.59
-0.51
-0.38
-0.23
-0.08
0.05
0.15
0.22
0.23
0.23
0.28
0.35
0.48
0.65
0.79
0.86
0.8
0.66
0.5
0.36
0.26
0.17
0.08
0
-0.14
-0.39
-0.62
-0.85
-1.01
-1.03
-1.03
-1.03
-1.06
-1.16
-1.21
-1.24
-1.29
-1.32
-1.33
-1.36
-1.36
-1.32
-1.22
-1.07
-1
-0.98
-0.94
-0.88
-0.82
-0.77
-0.75
-0.73
-0.77
-0.84
-0.89
-0.91
-0.92
-0.89
-0.87
-0.86
-0.82
-0.79
-0.77
-0.76
-0.72
-0.71
-0.7
-0.73
-0.83
-0.87
-0.85
-0.85
-0.83
-0.81
-0.8
-0.75
-0.69
-0.65
-0.61
-0.67
-0.82
-0.93
-0.95
-0.84
-0.66
-0.49
-0.43
-0.44
-0.53
-0.6
-0.56
-0.46
-0.41
-0.35
-0.34
-0.35
-0.31
-0.24
-0.18
-0.11
-0.08
-0.06
-0.03
0.01
0.05
0.12
0.17
0.17
0.15
0.13
0.11
0.14
0.18
0.22
0.27
0.28
0.33
0.42
0.51
0.61
0.63
0.52
0.41
0.27
0.19
0.2
0.22
0.25
0.29
0.31
0.37
0.51
0.63
0.72
0.76
0.72
0.68
0.71
0.76
0.86
0.92
0.91
0.88
0.85
0.85
0.88
0.99
1.11
1.2
1.24
1.21
1.12
1.05
1.04
1.09
1.2
1.28
1.29
1.3
1.3
1.35
1.46
1.56
1.63
1.68
1.71
1.77
1.84
1.86
1.89
1.92
1.95
1.98
2.04
2.14
2.21
2.29
2.41
2.57
2.74
2.91
3.11
3.29
3.45
3.5
3.39
3.17
2.89
2.67
2.56
2.56
2.55
2.53
2.5
2.43
2.39
2.38
2.4
2.46
2.49
2.52
2.55
2.57
2.54
2.54
2.57
2.65
2.79
2.83
2.69
2.4
1.96
1.79
1.92
2.29
2.73
3.37
4.77
7.99
12.64
17.88
21.7
22.91
20.86
16.66
11.72
7.38
4.48
2.66
1.75
1.57
1.94
2.63
3.26
3.64
3.68
3.54
3.38
3.32
3.36
3.45
3.53
3.59
3.62
3.61
3.63
3.71
3.86
4
4.14
4.25
4.32
4.38
4.38
4.34
4.36
4.39
4.39
4.44
4.51
4.57
4.69
4.81
4.93
5.07
5.19
5.32
5.45
5.54
5.59
5.61
5.58
5.57
5.61
5.7
5.82
5.93
5.99
6.1
6.25
6.31
6.36
6.44
6.46
6.51
6.56
6.6
6.66
6.74
6.83
6.96
7.09
7.19
7.27
7.34
7.42
7.54
7.7
7.81
7.91
7.94
7.94
7.93
7.92
7.88
7.83
7.74
7.65
7.53
7.38
7.21
7.01
6.8
6.62
6.5
6.45
6.44
6.43
6.37
6.23
6.07
5.94
5.91
5.96
6.07
6.15
6.21
6.24
6.2
6.13
6.04
5.95
5.87
5.86
5.9
6
6.14
6.22
6.19
6.11
5.99
5.87
5.81
5.78
5.79
5.87
5.97
5.98
5.95
5.86
5.7
5.57
5.49
5.51
5.59
5.64
5.62
5.56
5.52
5.49
5.47
5.43
5.37
5.28
5.18
5.1
5.09
5.09
5.1
5.11
5.08
5.01
4.91
4.82
4.75
4.73
4.76
4.78
4.82
4.8
4.72
4.63
4.56
4.49
4.44
4.42
4.38
4.36
4.4
4.47
4.54
4.53
4.42
4.27
4.17
4.15
4.2
4.3
4.28
4.2
4.07
3.98
3.98
4.02
4.07
4.09
4.05
3.96
3.9
3.89
3.91
3.94
3.95
3.91
3.87
3.79
3.73
3.72
3.7
3.7
3.68
3.66
3.63
3.64
3.64
3.63
3.61
3.59
3.55
3.55
3.56
3.6
3.63
3.62
3.58
3.59
3.64
3.73
3.89
4.01
4.08
4.18
4.3
4.39
4.45
4.37
4.13
3.82
3.48
3.27
3.2
3.17
3.15
3.11
3.04
2.96
2.9
2.86
2.85
2.79
2.74
2.7
2.63
2.54
2.46
2.38
2.38
2.44
2.47
2.37
2.05
1.59
1.25
1.32
1.73
2.33
3.08
4.43
7.19
11.41
16.02
19.82
21.11
19.73
16.03
11.65
7.63
4.71
2.6
1.02
0.04
-0.14
0.24
0.88
1.43
1.77
1.87
1.83
1.73
1.63
1.58
1.55
1.54
1.56
1.62
1.68
1.75
1.86
1.98
2.04
2.08
2.08
2.06
2.06
2.05
2.03
2.07
2.13
2.2
2.32
2.41
2.47
2.48
2.44
2.4
2.41
2.47
2.59
2.7
2.79
2.82
2.83
2.83
2.85
2.93
3.02
3.16
3.3
3.42
3.52
3.58
3.58
3.59
3.61
3.67
3.78
3.89
4.01
4.09
4.18
4.23
4.29
4.33
4.3
4.31
4.36
4.39
4.46
4.56
4.59
4.63
4.65
4.64
4.6
4.52
4.38
4.3
4.25
4.18
4.07
3.89
3.67
3.49
3.37
3.26
3.14
3.02
2.86
2.76
2.72
2.76
2.82
2.87
2.87
2.87
2.91
2.92
2.88
2.84
2.79
2.74
2.68
2.63
2.62
2.65
2.71
2.77
2.8
2.8
2.77
2.74
2.71
2.66
2.6
2.57
2.55
2.56
2.55
2.51
2.49
2.42
2.37
2.37
2.37
2.37
2.35
2.27
2.21
2.17
2.11
2.07
2.07
2.06
2.02
1.97
1.91
1.87
1.86
1.83
1.8
1.78
1.75
1.69
1.61
1.52
1.42
1.38
1.35
1.36
1.4
1.4
1.36
1.28
1.2
1.16
1.18
1.22
1.29
1.34
1.3
1.21
1.12
1.05
1.03
1.01
1.03
1.05
1.06
1.04
0.96
0.86
0.78
0.71
0.67
0.68
0.69
0.67
0.58
0.52
0.52
0.54
0.55
0.55
0.55
0.55
0.61
0.71
0.79
0.86
0.89
0.9
0.93
0.98
1.07
1.19
1.32
1.41
1.46
1.46
1.38
1.18
0.89
0.63
0.39
0.2
0.13
0.1
0.09
0.08
0.02
-0.08
-0.17
-0.24
-0.26
-0.22
-0.17
-0.16
-0.2
-0.26
-0.3
-0.3
-0.22
-0.15
-0.27
-0.59
-1.05
-1.4
-1.39
-1
-0.48
0.22
1.35
4.1
8.52
13.94
18.52
20.91
20.02
16.34
11.31
6.3
2.78
0.56
-0.63
-0.97
-0.68
-0.04
0.57
1.03
1.18
1.16
1.04
0.93
0.88
0.86
0.86
0.89
0.93
0.93
0.94
0.96
0.98
1.05
1.11
1.11
1.07
1.04
1.03
1.09
1.15
1.22
1.24
1.24
1.22
1.24
1.32
1.42
1.48
1.5
1.48
1.44
1.42
1.43
1.47
1.54
1.6
1.66
1.72
1.75
1.78
1.81
1.82
1.84
1.85
1.91
1.97
2.05
2.08
2.1
2.12
2.16
2.24
2.35
2.48
2.54
2.54
2.51
2.47
2.51
2.58
2.65
2.71
2.72
2.69
2.65
2.64
2.62
2.61
2.52
2.38
2.22
2.05
1.87
1.74
1.63
1.48
1.34
1.18
1.03
0.92
0.84
0.8
0.79
0.76
0.71
0.66
0.63
0.59
0.54
0.49
0.49
0.49
0.49
0.55
0.57
0.57
0.55
0.51
0.46
0.42
0.38
0.33
0.34
0.35
0.39
0.39
0.37
0.29
0.24
0.22
0.22
0.24
0.23
0.15
0.03
-0.08
-0.17
-0.2
-0.17
-0.12
-0.08
-0.05
-0.07
-0.12
-0.21
-0.3
-0.36
-0.36
-0.37
-0.42
-0.44
-0.47
-0.45
-0.39
-0.34
-0.33
-0.36
-0.47
-0.61
-0.68
-0.68
-0.64
-0.57
-0.52
-0.51
-0.54
-0.56
-0.59
-0.59
-0.54
-0.47
-0.42
-0.37
-0.37
-0.4
-0.4
-0.41
-0.46
-0.51
-0.56
-0.6
-0.62
-0.59
-0.54
-0.48
-0.45
-0.44
-0.44
-0.44
-0.42
-0.43
-0.44
-0.48
-0.52
-0.55
-0.56
-0.53
-0.46
-0.4
-0.28
-0.16
-0.07
-0.02
-0.01
-0.03
-0.03
0.01
0.11
0.27
0.41
0.54
0.69
0.81
0.89
0.86
0.65
0.3
-0.1
-0.42
-0.6
-0.64
-0.57
-0.5
-0.48
-0.53
-0.62
-0.7
-0.76
-0.8
-0.85
-0.86
-0.87
-0.89
-0.9
-0.9
-0.92
-0.92
-0.95
-1.06
-1.3
-1.65
-2.03
-2.13
-1.92
-1.54
-1.08
-0.25
1.73
5.67
10.84
16.12
19.35
19.59
16.39
11.27
5.79
1.4
-1.27
-2.63
-2.92
-2.54
-1.85
-1.14
-0.69
-0.53
-0.6
-0.76
-0.92
-1.02
-1.08
-1.1
-1.08
-1.05
-1
-0.95
-0.89
-0.83
-0.8
-0.77
-0.77
-0.78
-0.75
-0.69
-0.62
-0.56
-0.5
-0.47
-0.44
-0.43
-0.46
-0.49
-0.49
-0.49
-0.41
-0.29
-0.18
-0.08
-0.03
-0.03
-0.03
-0.02
0.01
0.03
0.02
0
0
0.03
0.08
0.15
0.24
0.34
0.46
0.55
0.57
0.6
0.63
0.66
0.73
0.8
0.84
0.88
0.94
1.02
1.17
1.31
1.37
1.4
1.43
1.48
1.47
1.43
1.41
1.37
1.3
1.21
1.1
0.96
0.82
0.7
0.57
0.48
0.41
0.3
0.19
0.13
0.05
-0.01
-0.02
-0.03
0
0.07
0.06
-0.03
-0.09
-0.12
-0.11
-0.01
0.09
0.14
0.2
0.23
0.26
0.3
0.34
0.34
0.34
0.33
0.32
0.32
0.3
0.3
0.38
0.51
0.62
0.65
0.55
0.39
0.25
0.17
0.21
0.33
0.39
0.39
0.35
0.3
0.31
0.35
0.37
0.38
0.34
0.25
0.16
0.09
0.06
0.09
0.12
0.14
0.18
0.2
0.21
0.21
0.22
0.22
0.22
0.26
0.35
0.45
0.53
0.56
0.53
0.49
0.44
0.41
0.43
0.5
0.56
0.63
0.69
0.68
0.63
0.57
0.48
0.44
0.44
0.43
0.38
0.29
0.17
0.1
0.03
-0.04
-0.07
-0.05
-0.01
-0.02
-0.08
-0.23
-0.39
-0.51
-0.59
-0.64
-0.66
-0.71
-0.81
-0.94
-1.08
-1.2
-1.29
-1.37
-1.39
-1.41
-1.44
-1.54
-1.66
-1.82
-1.93
-1.99
-2.04
-2.06
-2.11
-2.2
-2.3
-2.38
-2.39
-2.35
-2.27
-2.19
-2.1
-2.06
-2.09
-2.17
-2.35
-2.69
-3.07
-3.49
-3.83
-4.07
-4.2
-4.24
-4.28
-4.36
-4.51
-4.67
-4.78
-4.86
-4.89
-4.91
-4.95
-5.03
-5.08
-5.11
-5.15
-5.18
-5.24
-5.33
-5.53
-5.88
-6.29
-6.62
-6.59
-6.2
-5.66
-5.05
-4.02
-1.84
2.11
7.05
11.69
14.62
14.42
11.45
6.54
1.63
-2.28
-4.81
-6.32
-6.97
-6.84
-6.23
-5.49
-4.86
-4.49
-4.37
-4.4
-4.5
-4.61
-4.65
-4.64
-4.6
-4.46
-4.35
-4.3
-4.25
-4.21
-4.15
-4.07
-3.98
-3.9
-3.86
-3.85
-3.87
-3.88
-3.88
-3.87
-3.85
-3.8
-3.75
-3.71
-3.63
-3.55
-3.52
-3.47
-3.47
-3.53
-3.54
-3.54
-3.5
-3.42
-3.36
-3.31
-3.26
-3.2
-3.08
-2.95
-2.83
-2.75
-2.69
-2.68
-2.65
-2.58
-2.46
-2.28
-2.15
-2.08
-2.01
-1.96
-1.91
-1.88
-1.84
-1.79
-1.76
-1.71
-1.69
-1.68
-1.67
-1.66
-1.65
-1.59
-1.56
-1.62
-1.75
-1.94
-2.16
-2.29
-2.42
-2.54
-2.61
-2.74
-2.89
-3.01
-3.13
-3.25
-3.32
-3.37
-3.39
-3.42
-3.46
-3.5
-3.52
-3.55
-3.61
-3.63
-3.64
-3.66
-3.65
-3.58
-3.47
-3.41
-3.41
-3.44
-3.42
-3.4
-3.34
-3.23
-3.18
-3.22
-3.34
-3.45
-3.5
-3.49
-3.41
-3.29
-3.25
-3.29
-3.34
-3.34
-3.33
-3.29
-3.29
-3.28
-3.26
-3.25
-3.24
-3.22
-3.26
-3.27
-3.29
-3.35
-3.4
-3.47
-3.51
-3.51
-3.5
-3.51
-3.51
-3.54
-3.59
-3.59
-3.57
-3.53
-3.52
-3.56
-3.58
-3.59
-3.61
-3.62
-3.6
-3.57
-3.51
-3.46
-3.45
-3.45
-3.45
-3.49
-3.49
-3.46
-3.44
-3.47
-3.49
-3.48
-3.42
-3.37
-3.36
-3.33
-3.34
-3.39
-3.39
-3.37
-3.31
-3.25
-3.26
-3.29
-3.28
-3.26
-3.24
-3.21
-3.19
-3.18
-3.18
-3.18
-3.19
-3.16
-3.12
-3.11
-3.12
-3.13
-3.16
-3.2
-3.2
-3.18
-3.13
-3.03
-2.97
-2.92
-2.88
-2.9
-2.95
-2.95
-2.95
-2.86
-2.71
-2.59
-2.45
-2.37
-2.38
-2.39
-2.4
-2.37
-2.24
-2.04
-1.82
-1.59
-1.4
-1.3
-1.27
-1.31
-1.47
-1.68
-1.89
-2.11
-2.21
-2.2
-2.18
-2.17
-2.17
-2.24
-2.28
-2.28
-2.3
-2.26
-2.23
-2.22
-2.24
-2.25
-2.28
-2.27
-2.25
-2.22
-2.17
-2.13
-2.21
-2.49
-2.87
-3.22
-3.2
-2.82
-2.28
-1.65
-0.58
1.71
5.67
10.49
15.15
17.62
17.27
13.98
9.18
4.28
0.54
-1.9
-3.42
-4.07
-4.06
-3.64
-3.05
-2.61
-2.4
-2.43
-2.56
-2.74
-2.82
-2.84
-2.86
-2.9
-2.9
-2.88
-2.87
-2.83
-2.8
-2.84
-2.89
-2.93
-2.93
-2.88
-2.82
-2.79
-2.78
-2.82
-2.89
-2.94
-2.97
-2.92
-2.89
-2.86
-2.83
-2.85
-2.88
-2.95
-2.98
-3.01
-3.02
-2.98
-2.94
-2.9
-2.87
-2.83
-2.81
-2.79
-2.79
-2.78
-2.77
-2.74
-2.65
-2.55
-2.47
-2.43
-2.4
-2.38
-2.4
-2.39
-2.36
-2.34
-2.3
-2.27
-2.24
-2.2
-2.17
-2.16
-2.13
-2.16
-2.23
-2.31
-2.42
-2.53
-2.6
-2.72
-2.85
-3
-3.19
-3.39
-3.57
-3.73
-3.86
-4.01
-4.19
-4.37
-4.56
-4.75
-4.91
-5.08
-5.21
-5.3
-5.36
-5.35
-5.32
-5.31
-5.35
-5.43
-5.53
-5.61
-5.65
-5.66
-5.66
-5.68
-5.71
-5.73
-5.77
-5.84
-5.93
-6.01
-6.1
-6.17
-6.21
-6.22
-6.25
-6.27
-6.28
-6.28
-6.32
-6.38
-6.45
-6.55
-6.63
-6.73
-6.83
-6.93
-7.03
-7.13
-7.16
-7.23
-7.28
-7.34
-7.41
-7.49
-7.56
-7.61
-7.67
-7.72
-7.81
-7.94
-8.04
-8.12
-8.19
-8.22
-8.24
-8.3
-8.38
-8.47
-8.55
-8.61
-8.65
-8.68
-8.72
-8.76
-8.81
-8.86
-8.91
-8.95
-9.02
-9.12
-9.25
-9.34
-9.39
-9.41
-9.4
-9.4
-9.43
-9.5
-9.58
-9.65
-9.65
-9.67
-9.69
-9.71
-9.77
-9.83
-9.87
-9.95
-10
-10.01
-9.98
-9.93
-9.9
-9.96
-10.08
-10.18
-10.23
-10.28
-10.27
-10.25
-10.26
-10.28
-10.33
-10.39
-10.42
-10.43
-10.46
-10.46
-10.48
-10.48
-10.47
-10.46
-10.47
-10.47
-10.48
-10.52
-10.57
-10.62
-10.68
-10.68
-10.63
-10.64
-10.66
-10.69
-10.77
-10.84
-10.87
-10.83
-10.8
-10.76
-10.8
-10.89
-10.96
-10.95
-10.94
-10.93
-10.89
-10.85
-10.8
-10.73
-10.63
-10.55
-10.5
-10.51
-10.53
-10.47
-10.36
-10.25
-10.15
-10.05
-9.99
-9.96
-9.99
-10.09
-10.25
-10.46
-10.68
-10.84
-10.94
-11.04
-11.08
-11.11
-11.12
-11.13
-11.14
-11.18
-11.23
-11.26
-11.3
-11.3
-11.3
-11.3
-11.28
-11.23
-11.2
-11.17
-11.21
-11.39
-11.73
-12.12
-12.36
-12.22
-11.81
-11.34
-10.76
-9.37
-6.48
-1.81
3.34
7.61
9.47
7.92
3.75
-1.83
-6.86
-10.57
-12.8
-13.85
-13.95
-13.39
-12.64
-12.03
-11.72
-11.73
-11.9
-12.11
-12.2
-12.23
-12.19
-12.17
-12.19
-12.26
-12.4
-12.55
-12.62
-12.65
-12.63
-12.53
-12.51
-12.53
-12.55
-12.61
-12.65
-12.64
-12.68
-12.71
-12.77
-12.83
-12.86
-12.86
-12.85
-12.88
-12.89
-12.87
-12.89
-12.85
-12.81
-12.78
-12.82
-12.85
-12.94
-12.98
-13.01
-13.03
-12.99
-12.92
-12.91
-12.88
-12.82
-12.79
-12.79
-12.81
-12.85
-12.89
-12.91
-12.89
-12.79
-12.73
-12.73
-12.77
-12.84
-12.9
-12.94
-12.95
-12.95
-12.93
-12.92
-12.93
-12.93
-12.99
-13.11
-13.23
-13.39
-13.58
-13.76
-14
-14.24
-14.44
-14.65
-14.82
-14.88
-14.92
-15.01
-15.17
-15.41
-15.69
-15.94
-16.1
-16.18
-16.16
-16.11
-16.14
-16.17
-16.22
-16.33
-16.47
-16.56
-16.66
-16.71
-16.71
-16.71
-16.69
-16.7
-16.72
-16.71
-16.68
-16.71
-16.75
-16.82
-16.94
-17.05
-17.16
-17.25
-17.23
-17.2
-17.17
-17.15
-17.16
-17.21
-17.26
-17.3
-17.33
-17.34
-17.4
-17.5
-17.6
-17.67
-17.7
-17.7
-17.71
-17.74
-17.81
-17.9
-18.01
-18.08
-18.14
-18.21
-18.27
-18.31
-18.35
-18.38
-18.38
-18.41
-18.46
-18.53
-18.62
-18.67
-18.69
-18.73
-18.78
-18.79
-18.81
-18.85
-18.9
-18.99
-19.09
-19.16
-19.19
-19.15
-19.1
-19.03
-19.04
-19.11
-19.2
-19.26
-19.32
-19.32
-19.33
-19.33
-19.33
-19.32
-19.34
-19.35
-19.37
-19.38
-19.43
-19.52
-19.58
-19.66
-19.7
-19.67
-19.62
-19.54
-19.49
-19.46
-19.41
-19.41
-19.42
-19.45
-19.46
-19.45
-19.41
-19.37
-19.36
-19.35
-19.37
-19.42
-19.46
-19.47
-19.45
-19.39
-19.35
-19.32
-19.3
-19.35
-19.42
-19.47
-19.49
-19.46
-19.37
-19.28
-19.2
-19.12
-19.1
-19.13
-19.16
-19.15
-19.15
-19.1
-19.02
-18.96
-18.91
-18.85
-18.81
-18.77
-18.73
-18.73
-18.71
-18.68
-18.65
-18.57
-18.46
-18.39
-18.34
-18.32
-18.35
-18.38
-18.38
-18.33
-18.22
-18.09
-17.98
-17.91
-17.87
-17.87
-17.87
-17.82
-17.74
-17.63
-17.53
-17.44
-17.34
-17.21
-17.08
-16.89
-16.74
-16.62
-16.52
-16.42
-16.36
-16.26
-16.15
-16.02
-15.87
-15.69
-15.49
-15.41
-15.44
-15.59
-15.85
-16.05
-16.15
-16.13
-15.97
-15.79
-15.7
-15.6
-15.52
-15.45
-15.37
-15.3
-15.24
-15.14
-15.07
-14.98
-14.86
-14.76
-14.7
-14.64
-14.63
-14.64
-14.76
-14.97
-15.27
-15.43
-15.32
-14.95
-14.48
-13.85
-12.64
-9.73
-5.21
0.4
5.17
7.63
6.67
2.73
-2.82
-8.4
-12.37
-14.76
-15.65
-15.5
-14.78
-13.85
-13.2
-12.92
-12.95
-13.1
-13.27
-13.32
-13.3
-13.24
-13.16
-13.03
-12.94
-12.86
-12.82
-12.81
-12.8
-12.77
-12.73
-12.67
-12.57
-12.51
-12.5
-12.5
-12.54
-12.54
-12.46
-12.38
-12.25
-12.13
-12.1
-12.08
-12.01
-11.94
-11.81
-11.71
-11.65
-11.64
-11.6
-11.55
-11.4
-11.25
-11.14
-11.08
-11.04
-11.02
-10.96
-10.86
-10.76
-10.62
-10.53
-10.46
-10.38
-10.3
-10.21
-10.08
-9.97
-9.88
-9.77
-9.69
-9.61
-9.47
-9.34
-9.23
-9.14
-9.1
-9.03
-8.95
-8.91
-8.88
-8.86
-8.88
-8.91
-8.98
-9.09
-9.22
-9.36
-9.42
-9.43
-9.45
-9.5
-9.62
-9.76
-9.89
-10.01
-10.09
-10.14
-10.21
-10.25
-10.24
-10.22
-10.17
-10.12
-10.13
-10.13
-10.13
-10.12
-10.1
-10.02
-9.93
-9.81
-9.7
-9.62
-9.54
-9.49
-9.49
-9.49
-9.47
-9.45
-9.39
-9.34
-9.29
-9.26
-9.21
-9.16
-9.08
-9.04
-9.06
-9.08
-9.07
-9.03
-8.95
-8.85
-8.8
-8.8
-8.8
-8.79
-8.75
-8.71
-8.68
-8.67
-8.64
-8.63
-8.56
-8.52
-8.49
-8.47
-8.45
-8.44
-8.39
-8.35
-8.36
-8.33
-8.28
-8.23
-8.14
-8.03
-7.95
-7.88
-7.89
-7.93
-7.91
-7.88
-7.85
-7.79
-7.75
-7.77
-7.77
-7.71
-7.62
-7.44
-7.29
-7.25
-7.27
-7.31
-7.35
-7.28
-7.19
-7.14
-7.09
-7.1
-7.1
-7.05
-6.98
-6.89
-6.79
-6.77
-6.78
-6.74
-6.67
-6.57
-6.44
-6.34
-6.32
-6.32
-6.3
-6.25
-6.19
-6.13
-6.13
-6.14
-6.12
-6.12
-6.03
-5.91
-5.79
-5.69
-5.64
-5.61
-5.57
-5.55
-5.55
-5.49
-5.44
-5.41
-5.34
-5.29
-5.27
-5.21
-5.16
-5.12
-5.08
-5.05
-5.06
-5.04
-4.99
-4.93
-4.9
-4.88
-4.89
-4.91
-4.89
-4.87
-4.83
-4.78
-4.73
-4.73
-4.73
-4.76
-4.79
-4.79
-4.77
-4.72
-4.67
-4.66
-4.65
-4.65
-4.66
-4.63
-4.58
-4.49
-4.4
-4.28
-4.16
-4.07
-4.02
-4.01
-3.93
-3.82
-3.71
-3.57
-3.47
-3.35
-3.17
-3.05
-3.02
-3.14
-3.42
-3.73
-3.95
-4.04
-4
-3.92
-3.87
-3.82
-3.77
-3.73
-3.7
-3.71
-3.76
-3.82
-3.87
-3.89
-3.9
-3.92
-3.86
-3.74
-3.57
-3.41
-3.34
-3.44
-3.76
-4.17
-4.46
-4.31
-3.91
-3.42
-2.71
-1.2
1.89
6.62
12
16.72
18.59
17.21
12.71
7.03
1.74
-1.99
-4.11
-4.9
-4.66
-3.98
-3.18
-2.55
-2.28
-2.23
-2.35
-2.51
-2.61
-2.67
-2.67
-2.63
-2.54
-2.41
-2.32
-2.28
-2.27
-2.31
-2.34
-2.26
-2.16
-2.06
-1.99
-2
-2.02
-2.03
-2.03
-1.95
-1.9
-1.89
-1.86
-1.84
-1.78
-1.63
-1.5
-1.42
-1.32
-1.27
-1.25
-1.19
-1.15
-1.1
-1
-0.91
-0.79
-0.62
-0.49
-0.4
-0.3
-0.25
-0.25
-0.26
-0.26
-0.19
-0.02
0.14
0.29
0.46
0.55
0.57
0.59
0.66
0.74
0.88
1.01
1.08
1.12
1.13
1.15
1.23
1.31
1.36
1.41
1.38
1.25
1.1
0.94
0.76
0.57
0.4
0.26
0.12
-0.04
-0.23
-0.41
-0.53
-0.64
-0.71
-0.75
-0.79
-0.8
-0.77
-0.76
-0.78
-0.81
-0.89
-0.98
-1.01
-0.96
-0.84
-0.78
-0.78
-0.8
-0.79
-0.78
-0.78
-0.76
-0.75
-0.73
-0.73
-0.73
-0.69
-0.65
-0.66
-0.64
-0.57
-0.52
-0.47
-0.43
-0.43
-0.43
-0.46
-0.5
-0.54
-0.57
-0.6
-0.51
-0.39
-0.33
-0.32
-0.38
-0.51
-0.61
-0.64
-0.63
-0.54
-0.46
-0.45
-0.45
-0.46
-0.51
-0.53
-0.5
-0.44
-0.37
-0.33
-0.35
-0.41
-0.45
-0.47
-0.44
-0.38
-0.33
-0.33
-0.34
-0.37
-0.39
-0.36
-0.29
-0.21
-0.13
-0.09
-0.06
-0.03
-0.01
0
0
0.01
0.03
0.06
0.02
-0.01
-0.01
-0.01
0.05
0.09
0.11
0.1
0.06
0.03
0.07
0.16
0.23
0.24
0.23
0.21
0.19
0.21
0.24
0.24
0.24
0.24
0.23
0.23
0.27
0.33
0.41
0.45
0.46
0.4
0.3
0.2
0.15
0.17
0.26
0.34
0.38
0.39
0.36
0.33
0.34
0.39
0.43
0.45
0.45
0.44
0.43
0.43
0.41
0.42
0.43
0.38
0.28
0.21
0.12
0.04
0.02
0
0.02
0.05
0.06
0.16
0.3
0.47
0.61
0.71
0.79
0.87
0.94
1.01
1.1
1.14
1.17
1.21
1.25
1.34
1.37
1.32
1.15
0.87
0.61
0.41
0.27
0.23
0.23
0.23
0.19
0.14
0.14
0.17
0.18
0.17
0.12
0.05
0.04
0.06
0.05
0.08
0.13
0.14
0.13
0.02
-0.26
-0.65
-1.02
-1.13
-0.8
-0.31
0.23
0.99
3.01
6.68
11.87
16.99
20.6
21.3
18.74
14.03
8.5
4.03
0.88
-0.92
-1.63
-1.56
-0.95
-0.23
0.32
0.64
0.69
0.56
0.4
0.31
0.24
0.22
0.26
0.31
0.4
0.48
0.56
0.67
0.75
0.78
0.78
0.77
0.77
0.8
0.84
0.85
0.83
0.79
0.74
0.77
0.88
1
1.12
1.19
1.21
1.28
1.34
1.39
1.45
1.52
1.58
1.66
1.72
1.74
1.79
1.81
1.82
1.9
1.99
2.1
2.21
2.28
2.32
2.38
2.42
2.45
2.51
2.63
2.75
2.86
2.96
3.04
3.12
3.16
3.17
3.17
3.24
3.27
3.31
3.33
3.33
3.3
3.26
3.18
3.06
2.93
2.76
2.59
2.45
2.34
2.27
2.17
2.03
1.85
1.66
1.42
1.19
1
0.89
0.86
0.83
0.84
0.9
0.91
0.88
0.85
0.82
0.78
0.8
0.8
0.79
0.79
0.79
0.78
0.81
0.82
0.87
0.92
0.92
0.88
0.82
0.8
0.8
0.87
0.97
1.09
1.14
1.13
1.08
1.03
1.05
1.05
1.12
1.18
1.2
1.25
1.26
1.27
1.29
1.28
1.27
1.29
1.32
1.38
1.44
1.51
1.56
1.57
1.57
1.59
1.61
1.68
1.83
2.01
2.16
2.27
2.33
2.34
2.31
2.26
2.25
2.28
2.28
2.25
2.23
2.24
2.27
2.33
2.37
2.42
2.43
2.39
2.4
2.42
2.44
2.42
2.37
2.33
2.32
2.32
2.32
2.33
2.33
2.29
2.22
2.17
2.16
2.17
2.17
2.16
2.12
2.05
1.96
1.87
1.83
1.85
1.87
1.86
1.82
1.79
1.79
1.8
1.76
1.69
1.65
1.6
1.54
1.53
1.57
1.62
1.64
1.62
1.58
1.54
1.51
1.47
1.47
1.51
1.53
1.54
1.5
1.45
1.36
1.27
1.21
1.17
1.17
1.19
1.22
1.22
1.21
1.16
1.07
0.97
0.88
0.79
0.74
0.75
0.73
0.72
0.75
0.74
0.72
0.75
0.74
0.69
0.64
0.58
0.5
0.42
0.36
0.32
0.4
0.56
0.73
0.89
0.96
0.88
0.77
0.72
0.73
0.81
0.93
1.02
1.1
1.17
1.17
1.11
0.96
0.69
0.42
0.23
0.08
-0.02
-0.08
-0.16
-0.22
-0.22
-0.22
-0.17
-0.13
-0.11
-0.1
-0.08
-0.06
-0.01
0.02
0.01
-0.02
-0.04
-0.11
-0.23
-0.47
-0.8
-1.08
-1.06
-0.76
-0.31
0.23
1.23
3.58
7.79
13.08
18.35
21.31
21.14
17.62
12.29
6.79
2.58
0.01
-1.32
-1.55
-1.22
-0.61
-0.04
0.25
0.28
0.18
0.06
0.05
0.16
0.23
0.25
0.21
0.13
0.07
0.06
0.08
0.16
0.28
0.35
0.38
0.37
0.3
0.22
0.18
0.14
0.16
0.23
0.3
0.38
0.49
0.55
0.56
0.57
0.55
0.57
0.61
0.63
0.65
0.68
0.69
0.72
0.79
0.83
0.85
0.88
0.88
0.89
0.89
0.93
1.01
1.14
1.2
1.23
1.27
1.33
1.38
1.46
1.53
1.56
1.56
1.57
1.58
1.63
1.69
1.74
1.75
1.78
1.8
1.79
1.78
1.74
1.69
1.61
1.51
1.37
1.2
1.03
0.84
0.67
0.49
0.35
0.2
0.04
-0.11
-0.27
-0.42
-0.56
-0.69
-0.78
-0.79
-0.85
-0.92
-0.98
-1.07
-1.15
-1.15
-1.15
-1.15
-1.13
-1.17
-1.2
-1.24
-1.29
-1.29
-1.28
-1.25
-1.26
-1.29
-1.31
-1.36
-1.41
-1.4
-1.34
-1.29
-1.25
-1.26
-1.32
-1.37
-1.41
-1.42
-1.39
-1.41
-1.45
-1.5
-1.55
-1.58
-1.59
-1.57
-1.55
-1.52
-1.5
-1.5
-1.53
-1.56
-1.63
-1.67
-1.66
-1.65
-1.65
-1.68
-1.75
-1.82
-1.87
-1.89
-1.82
-1.75
-1.71
-1.71
-1.75
-1.81
-1.84
-1.83
-1.79
-1.76
-1.75
-1.78
-1.82
-1.85
-1.86
-1.86
-1.85
-1.89
-1.93
-1.98
-1.99
-1.94
-1.85
-1.77
-1.73
-1.73
-1.78
-1.81
-1.83
-1.84
-1.85
-1.86
-1.85
-1.81
-1.73
-1.66
-1.65
-1.7
-1.76
-1.78
-1.76
-1.71
-1.66
-1.67
-1.68
-1.71
-1.73
-1.71
-1.69
-1.68
-1.66
-1.64
-1.62
-1.6
-1.63
-1.65
-1.67
-1.72
-1.73
-1.75
-1.78
-1.78
-1.79
-1.75
-1.68
-1.59
-1.56
-1.58
-1.61
-1.66
-1.7
-1.7
-1.71
-1.71
-1.72
-1.76
-1.77
-1.74
-1.69
-1.62
-1.56
-1.56
-1.6
-1.65
-1.66
-1.65
-1.62
-1.61
-1.62
-1.65
-1.66
-1.64
-1.58
-1.51
-1.47
-1.49
-1.52
-1.56
-1.6
-1.66
-1.71
-1.73
-1.75
-1.72
-1.64
-1.6
-1.56
-1.53
-1.53
-1.49
-1.44
-1.32
-1.17
-1.02
-0.92
-0.83
-0.76
-0.75
-0.73
-0.66
-0.54
-0.4
-0.24
-0.16
-0.18
-0.35
-0.62
-0.91
-1.09
-1.23
-1.27
-1.16
-1.1
-1.05
-1.05
-1.1
-1.17
-1.24
-1.29
-1.29
-1.21
-1.18
-1.19
-1.2
-1.22
-1.23
-1.18
-1.14
-1.25
-1.51
-1.81
-1.99
-1.86
-1.54
-1.14
-0.53
1.2
4.6
9.75
15.15
19.29
20.58
18.32
13.54
7.6
2.64
-0.77
-2.52
-3.04
-2.71
-1.91
-1.17
-0.71
-0.57
-0.66
-0.84
-0.95
-0.95
-0.9
-0.84
-0.79
-0.74
-0.71
-0.7
-0.72
-0.75
-0.79
-0.78
-0.71
-0.67
-0.64
-0.62
-0.65
-0.68
-0.65
-0.57
-0.47
-0.39
-0.36
-0.39
-0.39
-0.36
-0.31
-0.23
-0.16
-0.13
-0.11
-0.09
-0.04
0.01
0.03
0.04
0.08
0.12
0.18
0.25
0.32
0.36
0.37
0.35
0.35
0.4
0.46
0.56
0.68
0.76
0.84
0.92
0.99
1.1
1.2
1.26
1.28
1.28
1.24
1.23
1.3
1.42
1.52
1.56
1.52
1.43
1.32
1.23
1.16
1.13
1.06
0.87
0.63
0.37
0.17
0.06
-0.02
-0.06
-0.12
-0.27
-0.46
-0.6
-0.68
-0.68
-0.63
-0.61
-0.63
-0.69
-0.78
-0.86
-0.88
-0.89
-0.85
-0.76
-0.72
-0.69
-0.71
-0.74
-0.75
-0.77
-0.78
-0.75
-0.73
-0.71
-0.68
-0.67
-0.63
-0.57
-0.54
-0.52
-0.5
-0.54
-0.59
-0.61
-0.57
-0.48
-0.41
-0.4
-0.42
-0.4
-0.43
-0.43
-0.39
-0.4
-0.44
-0.46
-0.51
-0.49
-0.45
-0.43
-0.4
-0.34
-0.31
-0.3
-0.3
-0.29
-0.29
-0.3
-0.3
-0.32
-0.34
-0.34
-0.34
-0.36
-0.34
-0.32
-0.32
-0.31
-0.29
-0.27
-0.22
-0.22
-0.21
-0.17
-0.11
-0.03
0.02
0.05
0.04
-0.03
-0.05
-0.02
0.04
0.11
0.14
0.15
0.14
0.12
0.11
0.09
0.07
0.08
0.12
0.2
0.3
0.35
0.36
0.3
0.22
0.21
0.28
0.35
0.44
0.48
0.45
0.4
0.36
0.38
0.45
0.49
0.47
0.47
0.5
0.55
0.62
0.65
0.66
0.63
0.59
0.59
0.63
0.68
0.69
0.67
0.62
0.56
0.54
0.53
0.54
0.59
0.68
0.77
0.87
0.9
0.9
0.9
0.89
0.88
0.87
0.83
0.79
0.73
0.68
0.67
0.7
0.72
0.73
0.76
0.83
0.86
0.84
0.81
0.73
0.7
0.7
0.71
0.74
0.78
0.74
0.71
0.77
0.8
0.85
0.88
0.87
0.85
0.81
0.75
0.69
0.62
0.57
0.59
0.69
0.86
1.05
1.21
1.29
1.35
1.35
1.36
1.39
1.42
1.47
1.53
1.65
1.8
1.96
2.07
1.99
1.75
1.41
1.13
0.96
0.96
0.99
1.01
0.99
0.9
0.84
0.8
0.78
0.77
0.78
0.77
0.76
0.75
0.76
0.75
0.75
0.79
0.79
0.65
0.36
-0.03
-0.29
-0.18
0.14
0.5
1.04
2.23
4.96
9.53
14.92
19.83
22.04
21
16.81
11.29
5.97
2.1
-0.12
-1.07
-1
-0.41
0.35
0.95
1.24
1.27
1.11
0.98
0.89
0.86
0.9
0.93
0.96
1
1.02
0.99
0.94
0.91
0.91
0.94
0.96
1.01
1.03
1.05
1.07
1.05
1.06
1.08
1.1
1.17
1.25
1.32
1.4
1.44
1.45
1.47
1.5
1.54
1.57
1.6
1.59
1.58
1.57
1.58
1.66
1.76
1.82
1.86
1.93
1.97
2.03
2.09
2.12
2.14
2.16
2.2
2.3
2.43
2.54
2.61
2.67
2.73
2.77
2.81
2.86
2.92
3.03
3.11
3.17
3.21
3.18
3.15
3.12
3.09
3.05
2.99
2.87
2.72
2.56
2.4
2.26
2.15
2.02
1.87
1.74
1.61
1.45
1.31
1.21
1.11
1.01
0.91
0.82
0.77
0.77
0.78
0.81
0.84
0.83
0.8
0.78
0.75
0.74
0.74
0.8
0.84
0.87
0.86
0.8
0.72
0.69
0.7
0.77
0.84
0.88
0.86
0.8
0.72
0.65
0.63
0.7
0.76
0.79
0.81
0.78
0.7
0.66
0.66
0.65
0.64
0.59
0.55
0.53
0.5
0.51
0.51
0.5
0.48
0.43
0.42
0.44
0.43
0.41
0.41
0.38
0.33
0.26
0.21
0.19
0.2
0.24
0.31
0.35
0.34
0.29
0.21
0.14
0.1
0.07
0.06
0.05
0.04
0.05
0.11
0.14
0.14
0.1
0.04
-0.01
0
0.05
0.1
0.13
0.1
0.04
0.03
0.02
0.02
0.07
0.14
0.14
0.15
0.15
0.14
0.13
0.1
0.09
0.09
0.12
0.18
0.23
0.26
0.27
0.25
0.25
0.27
0.25
0.22
0.21
0.16
0.15
0.21
0.29
0.41
0.47
0.51
0.5
0.4
0.28
0.21
0.21
0.24
0.3
0.36
0.39
0.41
0.39
0.38
0.4
0.44
0.41
0.39
0.39
0.36
0.37
0.38
0.38
0.37
0.36
0.39
0.42
0.45
0.43
0.39
0.33
0.31
0.33
0.37
0.38
0.35
0.28
0.23
0.24
0.32
0.38
0.44
0.43
0.38
0.37
0.37
0.4
0.45
0.46
0.44
0.41
0.38
0.36
0.34
0.34
0.31
0.31
0.34
0.36
0.39
0.45
0.48
0.53
0.58
0.59
0.64
0.72
0.82
0.94
1.01
1.08
1.16
1.26
1.42
1.61
1.73
1.72
1.54
1.22
0.92
0.7
0.55
0.49
0.49
0.47
0.47
0.44
0.43
0.46
0.48
0.45
0.38
0.34
0.34
0.36
0.38
0.38
0.37
0.31
0.18
-0.04
-0.35
-0.68
-0.8
-0.65
-0.23
0.21
0.91
2.55
6.09
11.05
16.6
20.49
21.56
19.15
14.36
8.76
3.92
0.79
-0.91
-1.4
-1.15
-0.49
0.25
0.74
0.95
0.9
0.76
0.64
0.59
0.58
0.58
0.58
0.58
0.58
0.6
0.63
0.66
0.7
0.72
0.74
0.78
0.83
0.87
0.92
0.92
0.93
0.98
0.98
0.97
1.02
1.06
1.11
1.2
1.3
1.39
1.42
1.41
1.37
1.32
1.29
1.33
1.43
1.56
1.67
1.7
1.73
1.75
1.75
1.8
1.87
1.93
1.99
2.04
2.07
2.12
2.17
2.22
2.31
2.42
2.5
2.59
2.67
2.71
2.74
2.75
2.76
2.83
2.9
2.97
3.03
3.05
3.04
3.03
2.99
2.93
2.83
2.68
2.51
2.35
2.2
2.06
1.92
1.77
1.58
1.4
1.25
1.15
1.06
0.98
0.93
0.87
0.78
0.68
0.58
0.52
0.49
0.46
0.42
0.4
0.38
0.39
0.46
0.51
0.54
0.55
0.54
0.52
0.53
0.57
0.59
0.56
0.56
0.56
0.58
0.61
0.64
0.6
0.56
0.52
0.5
0.54
0.57
0.57
0.54
0.48
0.41
0.35
0.33
0.34
0.31
0.29
0.28
0.3
0.33
0.35
0.32
0.28
0.18
0.06
0.02
0.02
0.03
0.03
0.02
-0.02
-0.04
-0.03
-0.03
-0.02
-0.05
-0.13
-0.17
-0.15
-0.11
-0.05
-0.02
-0.02
-0.03
-0.01
0.06
0.13
0.16
0.1
0.02
-0.11
-0.15
-0.12
-0.04
0.03
0.07
0.07
0.07
0.07
0.06
0.05
0.03
0.01
-0.01
-0.01
0.01
0.02
0
-0.03
-0.01
-0.01
-0.02
-0.03
-0.02
0
0.01
0
-0.02
-0.04
-0.07
-0.11
-0.05
0.05
0.13
0.16
0.15
0.1
0.03
-0.01
-0.03
0.01
0.08
0.09
0.09
0.08
0.04
0.02
0.05
0.11
0.14
0.18
0.17
0.13
0.1
0.04
0.04
0.07
0.07
0.1
0.14
0.17
0.21
0.26
0.29
0.29
0.27
0.21
0.16
0.16
0.18
0.23
0.28
0.27
0.23
0.21
0.17
0.17
0.19
0.17
0.18
0.18
0.18
0.21
0.27
0.28
0.29
0.29
0.3
0.34
0.36
0.33
0.3
0.25
0.21
0.19
0.2
0.27
0.35
0.4
0.45
0.51
0.55
0.6
0.67
0.73
0.78
0.86
0.93
1.02
1.11
1.21
1.29
1.38
1.48
1.56
1.61
1.54
1.3
1.02
0.77
0.59
0.54
0.56
0.58
0.58
0.55
0.52
0.52
0.54
0.54
0.52
0.5
0.48
0.49
0.53
0.59
0.62
0.6
0.43
0.09
-0.3
-0.63
-0.63
-0.32
0.09
0.54
1.49
3.8
8.02
13.33
18.53
21.35
21.04
17.37
12.04
6.63
2.53
0.11
-1.01
-1.11
-0.63
0.11
0.76
1.09
1.17
1.03
0.86
0.72
0.68
0.71
0.77
0.82
0.87
0.94
0.95
0.96
0.96
1
1.04
1.07
1.07
1.07
1.12
1.13
1.16
1.16
1.13
1.15
1.21
1.26
1.33
1.37
1.37
1.38
1.4
1.42
1.48
1.51
1.52
1.61
1.72
1.81
1.83
1.8
1.72
1.71
1.75
1.82
1.94
2.03
2.08
2.15
2.22
2.32
2.38
2.42
2.41
2.44
2.52
2.63
2.76
2.89
2.96
2.98
2.98
2.99
3.04
3.12
3.18
3.22
3.25
3.24
3.22
3.2
3.14
3.06
2.94
2.77
2.58
2.41
2.28
2.16
2.04
1.92
1.74
1.55
1.41
1.32
1.26
1.22
1.16
1.07
1.02
0.97
0.94
0.99
1.05
1.05
1.03
1
0.98
0.94
0.91
0.93
0.96
0.98
1.01
1.04
1.09
1.12
1.08
1.06
1.06
1.05
1.06
1.06
1.02
0.98
0.93
0.93
0.99
1.09
1.14
1.12
1.07
0.97
0.88
0.84
0.82
0.82
0.81
0.81
0.84
0.87
0.86
0.79
0.7
0.64
0.59
0.55
0.57
0.58
0.59
0.58
0.55
0.5
0.46
0.45
0.47
0.49
0.49
0.47
0.42
0.34
0.27
0.24
0.24
0.23
0.21
0.21
0.21
0.19
0.18
0.2
0.27
0.3
0.26
0.23
0.18
0.13
0.07
0.04
0.04
0.06
0.05
0.06
0.09
0.09
0.09
0.06
0.03
-0.01
-0.02
-0.02
0
-0.01
-0.02
-0.04
-0.08
-0.13
-0.13
-0.1
-0.03
0.02
0.04
0.04
0.03
0
0
0.05
0.11
0.14
0.15
0.13
0.12
0.1
0.06
0.03
-0.01
-0.03
0
0.06
0.12
0.15
0.15
0.1
0.06
0.06
0.1
0.17
0.21
0.22
0.22
0.2
0.21
0.2
0.15
0.12
0.07
0.04
0.07
0.11
0.14
0.19
0.19
0.12
0.08
0.04
0.04
0.04
0.06
0.13
0.18
0.2
0.23
0.27
0.26
0.22
0.14
0.09
0.1
0.18
0.2
0.21
0.2
0.2
0.22
0.23
0.23
0.18
0.07
-0.01
0.03
0.19
0.43
0.62
0.74
0.8
0.81
0.83
0.86
0.92
1.03
1.16
1.3
1.45
1.54
1.54
1.39
1.11
0.81
0.61
0.47
0.42
0.43
0.43
0.44
0.47
0.51
0.57
0.57
0.5
0.41
0.31
0.3
0.34
0.37
0.38
0.39
0.39
0.31
0.1
-0.24
-0.58
-0.69
-0.49
-0.13
0.38
1.2
3.43
7.37
12.73
17.75
20.93
20.93
17.68
12.53
6.97
2.85
0.27
-0.96
-1.23
-0.93
-0.24
0.39
0.81
0.96
0.89
0.7
0.54
0.49
0.51
0.57
0.63
0.66
0.66
0.64
0.65
0.64
0.67
0.74
0.83
0.88
0.91
0.89
0.85
0.83
0.84
0.9
0.95
1.01
1.05
1.07
1.11
1.16
1.19
1.23
1.26
1.28
1.31
1.35
1.4
1.43
1.46
1.53
1.58
1.64
1.73
1.78
1.79
1.79
1.77
1.79
1.88
1.98
2.08
2.2
2.27
2.33
2.38
2.44
2.52
2.62
2.72
2.78
2.84
2.89
2.91
2.93
2.93
2.99
3.05
3.12
3.19
3.25
3.24
3.16
3.03
2.84
2.66
2.53
2.36
2.2
2.05
1.89
1.74
1.65
1.54
1.41
1.26
1.07
0.94
0.87
0.84
0.85
0.85
0.83
0.82
0.79
0.79
0.78
0.74
0.71
0.7
0.72
0.76
0.78
0.8
0.74
0.69
0.65
0.64
0.68
0.72
0.72
0.74
0.72
0.66
0.62
0.62
0.59
0.56
0.53
0.53
0.54
0.54
0.57
0.59
0.57
0.49
0.46
0.43
0.39
0.35
0.29
0.26
0.21
0.2
0.2
0.26
0.29
0.26
0.23
0.19
0.14
0.09
0.05
0.06
0.07
0.06
0.06
0.07
0.04
-0.01
-0.05
-0.09
-0.11
-0.14
-0.13
-0.08
-0.04
-0.04
-0.03
-0.03
-0.03
-0.03
-0.03
-0.04
-0.06
-0.06
-0.06
-0.03
0.04
0.08
0.07
0.06
0.02
-0.03
-0.05
-0.07
-0.05
-0.03
-0.01
0
0.04
0.06
0.04
0.06
0.09
0.1
0.09
0.06
0.01
-0.01
0.01
0.07
0.14
0.17
0.15
0.08
0
-0.03
0
0.03
0.01
-0.04
-0.06
-0.07
-0.04
0.01
0.03
0.02
-0.01
-0.06
-0.05
-0.02
-0.02
0.01
0.05
0.06
0.09
0.11
0.11
0.1
0.07
0.02
0
0
0.01
0.04
0.1
0.13
0.13
0.12
0.15
0.17
0.21
0.25
0.2
0.12
0.03
0.01
0.06
0.11
0.16
0.21
0.18
0.12
0.12
0.12
0.17
0.21
0.19
0.22
0.26
0.25
0.27
0.28
0.27
0.27
0.32
0.42
0.59
0.73
0.8
0.84
0.85
0.89
0.99
1.05
1.11
1.24
1.36
1.49
1.61
1.66
1.53
1.26
0.92
0.63
0.49
0.43
0.4
0.44
0.47
0.46
0.48
0.49
0.49
0.46
0.4
0.36
0.38
0.41
0.44
0.45
0.41
0.34
0.17
-0.13
-0.51
-0.68
-0.57
-0.24
0.13
0.68
1.91
4.91
9.52
15.02
19.35
21.18
19.5
15.13
9.66
4.58
1.2
-0.69
-1.4
-1.3
-0.73
-0.02
0.46
0.71
0.67
0.51
0.36
0.33
0.34
0.34
0.31
0.27
0.29
0.32
0.37
0.45
0.5
0.48
0.45
0.41
0.4
0.43
0.48
0.57
0.66
0.7
0.71
0.7
0.66
0.61
0.6
0.61
0.65
0.72
0.78
0.84
0.93
0.99
1.05
1.07
1.04
1.01
1.03
1.08
1.13
1.19
1.29
1.36
1.42
1.48
1.51
1.54
1.6
1.64
1.68
1.76
1.79
1.81
1.87
1.92
2
2.13
2.26
2.36
2.41
2.43
2.45
2.48
2.54
2.59
2.59
2.57
2.53
2.49
2.47
2.42
2.28
2.16
2
1.83
1.67
1.48
1.28
1.08
0.9
0.78
0.7
0.6
0.53
0.45
0.36
0.3
0.22
0.16
0.16
0.19
0.24
0.25
0.23
0.2
0.17
0.15
0.17
0.21
0.22
0.2
0.12
0.1
0.13
0.15
0.18
0.2
0.19
0.21
0.21
0.21
0.24
0.25
0.2
0.12
0.05
0.02
0.04
0.08
0.1
0.13
0.14
0.09
0.05
0.03
-0.01
0
0.01
-0.02
0.01
0
-0.07
-0.15
-0.18
-0.21
-0.17
-0.13
-0.13
-0.11
-0.11
-0.15
-0.17
-0.15
-0.17
-0.18
-0.19
-0.21
-0.17
-0.11
-0.08
-0.07
-0.1
-0.21
-0.28
-0.31
-0.29
-0.23
-0.16
-0.1
-0.07
-0.07
-0.1
-0.1
-0.12
-0.14
-0.1
-0.03
0
0.02
0.04
0.02
0.02
0.01
-0.03
-0.07
-0.11
-0.14
-0.13
-0.12
-0.11
-0.07
-0.02
0.02
0.04
0.03
-0.02
-0.06
-0.09
-0.08
-0.04
0
0.04
0.02
-0.04
-0.11
-0.16
-0.16
-0.12
-0.08
-0.03
-0.03
-0.04
-0.06
-0.09
-0.11
-0.09
-0.1
-0.1
-0.08
-0.09
-0.1
-0.07
-0.09
-0.08
-0.04
-0.05
-0.09
-0.13
-0.17
-0.17
-0.16
-0.15
-0.15
-0.12
-0.05
-0.02
0
-0.01
-0.06
-0.12
-0.14
-0.11
-0.04
0.03
0.04
0.03
0.05
0.02
-0.02
-0.05
-0.05
-0.04
-0.05
-0.01
0.02
0.06
0.11
0.15
0.19
0.25
0.3
0.34
0.44
0.54
0.61
0.66
0.7
0.8
0.95
1.12
1.25
1.3
1.21
0.93
0.65
0.4
0.22
0.15
0.13
0.18
0.23
0.24
0.25
0.28
0.28
0.22
0.17
0.1
0.06
0.05
0.08
0.14
0.17
0.16
0.09
0.01
-0.19
-0.5
-0.84
-1.01
-0.86
-0.52
-0.1
0.44
1.98
5.17
10.09
15.33
19.42
20.82
18.76
14.29
8.67
3.99
0.79
-0.91
-1.6
-1.54
-0.99
-0.33
0.23
0.5
0.51
0.38
0.19
0.13
0.12
0.12
0.16
0.19
0.2
0.28
0.36
0.41
0.41
0.36
0.31
0.31
0.3
0.31
0.34
0.38
0.4
0.41
0.43
0.49
0.57
0.65
0.74
0.78
0.77
0.72
0.7
0.73
0.79
0.87
0.96
1.05
1.12
1.18
1.21
1.23
1.25
1.25
1.31
1.34
1.34
1.38
1.42
1.46
1.53
1.61
1.66
1.74
1.83
1.9
2
2.06
2.06
2.12
2.25
2.36
2.45
2.5
2.49
2.45
2.41
2.4
2.43
2.5
2.52
2.52
2.45
2.32
2.15
1.97
1.8
1.62
1.48
1.35
1.21
1.02
0.81
0.65
0.51
0.4
0.31
0.25
0.22
0.19
0.17
0.19
0.19
0.14
0.07
0.01
-0.01
0.01
0.05
0.07
0.1
0.12
0.12
0.15
0.14
0.11
0.05
0.02
0.04
0.05
0.09
0.13
0.14
0.12
0.13
0.12
0.12
0.14
0.12
0.16
0.2
0.19
0.13
0.1
0.04
0.07
0.15
0.18
0.15
0.07
-0.02
-0.04
-0.02
0
0.01
-0.02
-0.08
-0.11
-0.09
-0.07
-0.08
-0.15
-0.22
-0.24
-0.21
-0.16
-0.12
-0.09
-0.13
-0.17
-0.22
-0.25
-0.24
-0.25
-0.26
-0.22
-0.19
-0.14
-0.13
-0.15
-0.17
-0.16
-0.18
-0.15
-0.13
-0.18
-0.26
-0.3
-0.32
-0.27
-0.22
-0.19
-0.17
-0.17
-0.2
-0.23
-0.25
-0.25
-0.26
-0.24
-0.26
-0.28
-0.32
-0.32
-0.32
-0.27
-0.22
-0.2
-0.21
-0.23
-0.19
-0.14
-0.11
-0.14
-0.21
-0.24
-0.25
-0.22
-0.19
-0.17
-0.19
-0.22
-0.24
-0.2
-0.16
-0.16
-0.18
-0.2
-0.2
-0.14
-0.08
-0.07
-0.04
-0.04
-0.08
-0.12
-0.14
-0.16
-0.12
-0.05
0.03
0.12
0.23
0.32
0.34
0.35
0.4
0.48
0.61
0.77
0.9
1.02
1.09
1.11
1.09
1.02
0.83
0.56
0.29
0.13
0.06
0.07
0.13
0.17
0.17
0.14
0.1
0.07
0.06
-0.01
-0.08
-0.12
-0.15
-0.15
-0.15
-0.13
-0.09
-0.02
0
-0.12
-0.37
-0.71
-1.04
-1.03
-0.75
-0.39
0.09
1.14
3.66
8.01
13.22
18.05
20.38
19.61
15.77
10.56
5.47
1.79
-0.41
-1.47
-1.59
-1.21
-0.61
-0.08
0.17
0.2
0.1
0
-0.03
0.01
0.03
0.01
0.02
0.06
0.1
0.15
0.2
0.21
0.18
0.18
0.17
0.18
0.22
0.25
0.29
0.36
0.39
0.44
0.48
0.48
0.48
0.52
0.54
0.62
0.72
0.76
0.73
0.75
0.76
0.77
0.85
0.9
0.94
1.01
1.03
1.06
1.15
1.21
1.27
1.34
1.4
1.49
1.56
1.61
1.63
1.64
1.62
1.64
1.67
1.78
1.93
2.03
2.08
2.08
2.11
2.13
2.22
2.33
2.42
2.48
2.46
2.42
2.41
2.4
2.34
2.25
2.15
2.01
1.85
1.67
1.47
1.29
1.11
0.96
0.89
0.82
0.72
0.59
0.44
0.31
0.22
0.13
0.08
0.05
0
-0.02
-0.04
-0.07
-0.08
-0.04
0.01
0.04
0.06
0.06
0.04
0.03
0.07
0.14
0.2
0.24
0.21
0.15
0.14
0.12
0.07
0.11
0.14
0.14
0.22
0.25
0.24
0.25
0.19
0.08
0.04
0
-0.02
0.04
0.07
0.09
0.1
0.08
0.03
0.02
0.01
-0.01
-0.04
-0.07
-0.08
-0.08
-0.07
-0.09
-0.11
-0.16
-0.2
-0.22
-0.23
-0.23
-0.26
-0.33
-0.36
-0.33
-0.3
-0.22
-0.2
-0.24
-0.27
-0.3
-0.29
-0.25
-0.23
-0.22
-0.21
-0.22
-0.22
-0.22
-0.22
-0.23
-0.29
-0.32
-0.29
-0.27
-0.24
-0.2
-0.19
-0.21
-0.24
-0.27
-0.28
-0.27
-0.25
-0.23
-0.21
-0.19
-0.17
-0.17
-0.19
-0.19
-0.16
-0.11
-0.02
0.01
-0.01
-0.02
-0.06
-0.14
-0.16
-0.16
-0.16
-0.11
-0.07
-0.07
-0.08
-0.13
-0.19
-0.26
-0.33
-0.38
-0.44
-0.56
-0.68
-0.79
-0.86
-0.83
-0.76
-0.63
-0.47
-0.38
-0.36
-0.35
-0.32
-0.26
-0.16
-0.03
0.11
0.25
0.35
0.43
0.53
0.69
0.83
0.93
1
0.96
0.78
0.56
0.3
0.06
-0.03
-0.06
-0.03
0.05
0.09
0.06
0.02
-0.04
-0.06
-0.04
-0.04
-0.04
-0.03
-0.06
-0.09
-0.11
-0.14
-0.13
-0.11
-0.09
-0.11
-0.29
-0.64
-1.03
-1.09
-0.86
-0.44
-0.01
0.69
2.42
6.05
10.99
16.27
19.71
20.26
17.4
12.54
7.2
2.85
0.14
-1.33
-1.78
-1.57
-1
-0.33
0.1
0.26
0.17
0.02
-0.09
-0.1
-0.06
-0.04
-0.05
-0.05
-0.06
-0.08
-0.06
-0.05
-0.03
0.04
0.11
0.17
0.26
0.29
0.24
0.22
0.2
0.23
0.29
0.32
0.35
0.39
0.41
0.42
0.43
0.42
0.44
0.47
0.53
0.6
0.67
0.69
0.71
0.76
0.81
0.88
0.95
1.01
1.03
1.06
1.09
1.14
1.23
1.32
1.35
1.36
1.35
1.4
1.52
1.66
1.78
1.84
1.86
1.87
1.89
1.92
1.98
2.05
2.12
2.19
2.28
2.36
2.39
2.35
2.25
2.12
1.97
1.79
1.63
1.49
1.33
1.17
0.99
0.86
0.74
0.63
0.5
0.37
0.27
0.15
0.02
-0.09
-0.16
-0.2
-0.19
-0.17
-0.12
-0.08
-0.06
-0.08
-0.09
-0.1
-0.12
-0.17
-0.25
-0.29
-0.23
-0.15
-0.08
-0.04
-0.05
-0.09
-0.1
-0.09
-0.08
-0.07
-0.12
-0.17
-0.19
-0.21
-0.18
-0.15
-0.18
-0.25
-0.27
-0.28
-0.23
-0.19
-0.16
-0.1
-0.08
-0.14
-0.2
-0.21
-0.24
-0.25
-0.27
-0.27
-0.21
-0.18
-0.2
-0.24
-0.29
-0.35
-0.41
-0.42
-0.38
-0.33
-0.33
-0.35
-0.39
-0.39
-0.37
-0.36
-0.33
-0.3
-0.31
-0.3
-0.3
-0.3
-0.3
-0.32
-0.34
-0.31
-0.29
-0.28
-0.26
-0.25
-0.23
-0.22
-0.22
-0.17
-0.16
-0.16
-0.17
-0.17
-0.16
-0.18
-0.18
-0.16
-0.11
-0.09
-0.1
-0.08
-0.05
-0.05
-0.08
-0.04
-0.05
-0.05
-0.07
-0.08
-0.09
-0.09
-0.09
-0.04
0
0.02
0.03
0.03
0.02
0.04
0.05
0.06
0.07
0.04
-0.01
-0.02
0
0.04
0.07
0.04
-0.01
-0.08
-0.12
-0.11
-0.04
0.02
0.05
0.03
0
-0.01
-0.03
0
0.07
0.14
0.22
0.25
0.29
0.29
0.27
0.32
0.42
0.5
0.6
0.7
0.79
0.93
1.08
1.19
1.24
1.1
0.81
0.47
0.22
0.05
0.05
0.1
0.13
0.16
0.14
0.07
-0.01
-0.08
-0.15
-0.16
-0.11
-0.05
-0.02
-0.02
-0.06
-0.14
-0.16
-0.13
-0.05
0.01
-0.07
-0.36
-0.74
-1.07
-1.12
-0.8
-0.38
0.01
0.88
3.05
7.12
12.31
17.21
20.22
19.91
16.62
11.28
6.07
2.05
-0.37
-1.54
-1.81
-1.4
-0.75
-0.19
0.14
0.23
0.13
-0.02
-0.08
-0.08
-0.02
0.02
0.02
0.06
0.06
0.06
0.1
0.13
0.16
0.21
0.22
0.2
0.23
0.3
0.37
0.44
0.43
0.38
0.31
0.3
0.35
0.46
0.61
0.72
0.77
0.76
0.7
0.64
0.64
0.66
0.74
0.84
0.93
0.98
1.04
1.06
1.08
1.08
1.05
1.03
1.08
1.2
1.35
1.45
1.5
1.51
1.5
1.48
1.52
1.6
1.71
1.8
1.87
1.93
2.02
2.11
2.18
2.23
2.24
2.24
2.25
2.27
2.27
2.24
2.19
2.09
1.95
1.81
1.68
1.55
1.47
1.35
1.17
0.99
0.78
0.56
0.4
0.29
0.23
0.21
0.17
0.1
0.05
-0.04
-0.15
-0.21
-0.25
-0.22
-0.13
-0.06
-0.04
-0.02
-0.03
-0.04
-0.02
-0.01
0.04
0.06
0.07
0.07
0.07
0.04
-0.01
-0.05
-0.06
-0.04
0
0.02
0.04
0.05
0.06
0.07
0.07
0.04
-0.03
-0.07
-0.04
0.01
0.03
0.02
-0.01
-0.07
-0.1
-0.09
-0.08
-0.06
-0.09
-0.16
-0.23
-0.22
-0.23
-0.24
-0.25
-0.29
-0.32
-0.36
-0.36
-0.32
-0.26
-0.24
-0.26
-0.29
-0.29
-0.25
-0.16
-0.14
-0.17
-0.24
-0.32
-0.37
-0.39
-0.36
-0.35
-0.31
-0.29
-0.26
-0.23
-0.21
-0.19
-0.15
-0.13
-0.13
-0.14
-0.15
-0.18
-0.17
-0.14
-0.11
-0.09
-0.14
-0.19
-0.18
-0.16
-0.16
-0.13
-0.11
-0.1
-0.09
-0.09
-0.08
-0.02
0
-0.02
-0.04
-0.04
-0.06
-0.04
0
0.01
-0.01
-0.07
-0.12
-0.07
0
0.06
0.14
0.13
0.06
-0.02
-0.07
-0.1
-0.06
-0.04
-0.01
0.04
0.05
0.06
0.05
0.08
0.11
0.16
0.19
0.22
0.25
0.26
0.3
0.33
0.37
0.43
0.48
0.53
0.6
0.73
0.9
1.04
1.16
1.22
1.23
1.16
1.04
0.89
0.73
0.55
0.4
0.3
0.25
0.24
0.24
0.25
0.24
0.24
0.22
0.21
0.22
0.23
0.24
0.26
0.26
0.24
0.23
0.19
0.18
0.22
0.11
-0.14
-0.54
-0.81
-0.78
-0.45
-0.04
0.47
1.41
3.9
8.05
13.42
18.07
20.58
19.82
16.15
10.94
5.68
1.94
-0.33
-1.29
-1.41
-1
-0.26
0.28
0.56
0.61
0.51
0.39
0.39
0.42
0.42
0.41
0.38
0.4
0.41
0.41
0.39
0.41
0.44
0.5
0.59
0.66
0.69
0.69
0.67
0.65
0.67
0.71
0.75
0.8
0.85
0.91
0.98
1.02
1.05
1.09
1.1
1.1
1.12
1.13
1.18
1.23
1.27
1.32
1.34
1.38
1.41
1.48
1.57
1.66
1.74
1.81
1.86
1.94
2.04
2.14
2.23
2.27
2.27
2.29
2.33
2.41
2.54
2.64
2.7
2.71
2.72
2.74
2.78
2.85
2.92
2.94
2.92
2.86
2.77
2.64
2.51
2.39
2.25
2.1
1.98
1.91
1.87
1.78
1.6
1.38
1.15
0.95
0.82
0.78
0.78
0.75
0.69
0.65
0.63
0.63
0.61
0.62
0.62
0.57
0.5
0.47
0.47
0.53
0.58
0.6
0.57
0.53
0.46
0.42
0.42
0.41
0.41
0.41
0.41
0.41
0.41
0.4
0.37
0.34
0.31
0.26
0.23
0.23
0.23
0.27
0.26
0.23
0.2
0.13
0.06
0.03
0.01
-0.01
-0.01
-0.06
-0.11
-0.12
-0.14
-0.17
-0.19
-0.23
-0.26
-0.28
-0.29
-0.29
-0.26
-0.25
-0.24
-0.22
-0.26
-0.3
-0.35
-0.38
-0.35
-0.27
-0.23
-0.19
-0.16
-0.19
-0.23
-0.24
-0.24
-0.25
-0.22
-0.2
-0.2
-0.2
-0.22
-0.26
-0.27
-0.32
-0.37
-0.38
-0.35
-0.33
-0.32
-0.34
-0.36
-0.34
-0.37
-0.37
-0.3
-0.27
-0.24
-0.2
-0.21
-0.27
-0.29
-0.33
-0.33
-0.27
-0.22
-0.17
-0.12
-0.14
-0.17
-0.19
-0.26
-0.32
-0.34
-0.31
-0.27
-0.25
-0.23
-0.21
-0.19
-0.17
-0.13
-0.1
-0.07
-0.04
-0.03
-0.01
-0.01
-0.01
-0.01
-0.01
0.01
0.04
0.08
0.11
0.09
0.08
0.11
0.17
0.24
0.28
0.29
0.3
0.34
0.44
0.59
0.78
0.95
1.08
1.19
1.2
1.08
0.84
0.56
0.33
0.16
0.12
0.15
0.19
0.2
0.17
0.11
0.1
0.07
0.02
-0.01
-0.01
-0.01
0
0
-0.02
-0.04
-0.02
0.02
0.06
0.07
-0.07
-0.42
-0.78
-0.9
-0.69
-0.28
0.17
0.92
2.78
6.47
11.42
16.39
19.9
20.27
17.67
12.79
7.63
3.42
0.74
-0.79
-1.4
-1.27
-0.79
-0.21
0.21
0.37
0.38
0.3
0.23
0.22
0.22
0.2
0.2
0.21
0.23
0.28
0.36
0.38
0.43
0.49
0.49
0.51
0.52
0.5
0.52
0.53
0.58
0.66
0.74
0.75
0.77
0.77
0.76
0.78
0.81
0.87
0.94
1.01
1.06
1.12
1.18
1.18
1.16
1.14
1.16
1.23
1.33
1.4
1.46
1.52
1.51
1.52
1.57
1.66
1.78
1.89
1.98
2.03
2.03
2.02
2.04
2.1
2.16
2.19
2.22
2.25
2.28
2.3
2.36
2.45
2.54
2.57
2.57
2.53
2.45
2.35
2.19
2.02
1.85
1.68
1.54
1.42
1.32
1.2
1.04
0.85
0.67
0.53
0.44
0.4
0.38
0.37
0.36
0.32
0.26
0.17
0.08
0.04
0.04
0.08
0.13
0.13
0.12
0.12
0.11
0.13
0.14
0.13
0.1
0.09
0.07
0.04
0.04
0.02
0
0.06
0.09
0.11
0.15
0.15
0.12
0.1
0.08
0.06
0.06
0.03
0
0
0
0.03
0.08
0.11
0.1
0.03
-0.05
-0.11
-0.15
-0.17
-0.18
-0.24
-0.27
-0.26
-0.23
-0.2
-0.19
-0.2
-0.24
-0.27
-0.3
-0.27
-0.23
-0.23
-0.27
-0.3
-0.34
-0.35
-0.32
-0.28
-0.24
-0.25
-0.3
-0.29
-0.26
-0.22
-0.17
-0.16
-0.19
-0.2
-0.19
-0.21
-0.19
-0.18
-0.15
-0.11
-0.07
0
0.04
0.06
0.06
0.01
-0.05
-0.12
-0.15
-0.14
-0.08
-0.01
0.01
-0.02
-0.11
-0.2
-0.23
-0.23
-0.16
-0.03
0.08
0.15
0.22
0.23
0.21
0.15
0.09
0.06
0.05
0.02
-0.02
-0.07
-0.14
-0.21
-0.2
-0.17
-0.15
-0.13
-0.17
-0.22
-0.24
-0.29
-0.31
-0.29
-0.28
-0.26
-0.2
-0.22
-0.24
-0.26
-0.28
-0.28
-0.23
-0.13
-0.01
0.12
0.17
0.15
0.1
0.09
0.19
0.39
0.57
0.68
0.7
0.59
0.45
0.31
0.17
0.04
-0.09
-0.17
-0.17
-0.13
-0.13
-0.16
-0.22
-0.3
-0.31
-0.28
-0.22
-0.16
-0.14
-0.19
-0.22
-0.19
-0.15
-0.14
-0.11
-0.14
-0.27
-0.52
-0.88
-1.17
-1.18
-0.91
-0.54
-0.12
0.86
3.17
7.38
12.63
17.52
20.42
19.93
16.5
11.04
5.81
1.83
-0.55
-1.69
-1.92
-1.52
-0.87
-0.23
0.16
0.29
0.23
0.05
-0.07
-0.13
-0.14
-0.15
-0.13
-0.08
-0.04
0.02
0.07
0.1
0.12
0.12
0.05
0.02
0.07
0.1
0.18
0.25
0.27
0.33
0.4
0.41
0.43
0.44
0.43
0.45
0.51
0.57
0.63
0.64
0.64
0.66
0.71
0.79
0.87
0.91
0.91
0.9
0.96
1.07
1.19
1.28
1.29
1.26
1.18
1.17
1.25
1.41
1.59
1.71
1.78
1.78
1.75
1.7
1.73
1.84
1.95
2.02
2.08
2.1
2.1
2.13
2.18
2.23
2.24
2.24
2.17
2.05
1.9
1.71
1.52
1.36
1.2
1.07
1.01
0.91
0.77
0.65
0.5
0.34
0.2
0.06
-0.04
-0.09
-0.13
-0.15
-0.17
-0.17
-0.17
-0.19
-0.16
-0.1
-0.07
-0.05
-0.01
-0.01
-0.02
0
-0.01
-0.03
0
0.03
0.05
0.07
0.04
0
-0.01
-0.04
-0.09
-0.09
-0.06
-0.06
-0.06
-0.04
-0.02
0.02
0.03
0.03
0.03
0.01
-0.02
-0.04
-0.05
-0.09
-0.12
-0.12
-0.12
-0.13
-0.15
-0.15
-0.16
-0.22
-0.28
-0.29
-0.29
-0.28
-0.26
-0.26
-0.26
-0.27
-0.27
-0.27
-0.25
-0.24
-0.29
-0.35
-0.38
-0.37
-0.33
-0.29
-0.27
-0.28
-0.31
-0.35
-0.35
-0.33
-0.31
-0.31
-0.34
-0.37
-0.36
-0.33
-0.28
-0.23
-0.22
-0.25
-0.28
-0.31
-0.3
-0.26
-0.24
-0.24
-0.26
-0.29
-0.29
-0.28
-0.26
-0.24
-0.24
-0.26
-0.23
-0.21
-0.2
-0.15
-0.14
-0.15
-0.12
-0.13
-0.16
-0.19
-0.22
-0.22
-0.19
-0.14
-0.11
-0.1
-0.13
-0.19
-0.24
-0.25
-0.23
-0.21
-0.16
-0.1
-0.05
-0.02
-0.03
-0.09
-0.13
-0.18
-0.2
-0.18
-0.2
-0.22
-0.21
-0.18
-0.15
-0.1
-0.1
-0.12
-0.1
-0.02
0.08
0.19
0.22
0.16
0.09
0.05
0.09
0.24
0.47
0.65
0.76
0.76
0.68
0.62
0.53
0.41
0.26
0.09
-0.07
-0.16
-0.13
-0.09
-0.04
-0.05
-0.12
-0.16
-0.16
-0.14
-0.11
-0.1
-0.11
-0.11
-0.1
-0.12
-0.07
0.01
0.01
-0.09
-0.36
-0.79
-1.12
-1.12
-0.85
-0.42
0.04
1.02
3.41
7.73
13
17.81
20.51
19.76
16.1
10.56
5.33
1.46
-0.76
-1.78
-1.9
-1.44
-0.81
-0.24
0.07
0.16
0.14
0.04
0
-0.01
-0.04
-0.06
-0.03
-0.03
-0.04
-0.06
-0.05
-0.01
0.09
0.18
0.21
0.22
0.17
0.13
0.13
0.17
0.23
0.29
0.33
0.35
0.4
0.44
0.46
0.45
0.41
0.38
0.37
0.37
0.43
0.55
0.63
0.7
0.77
0.74
0.7
0.74
0.82
0.93
1.07
1.11
1.09
1.07
1.04
1.05
1.15
1.25
1.37
1.49
1.58
1.63
1.68
1.71
1.73
1.79
1.88
1.93
1.99
2.07
2.11
2.14
2.14
2.11
2.03
1.98
1.91
1.83
1.76
1.64
1.46
1.27
1.08
0.89
0.79
0.71
0.63
0.55
0.41
0.24
0.04
-0.14
-0.23
-0.28
-0.28
-0.25
-0.21
-0.24
-0.25
-0.27
-0.3
-0.32
-0.31
-0.28
-0.24
-0.23
-0.28
-0.33
-0.37
-0.4
-0.37
-0.29
-0.23
-0.16
-0.1
-0.08
-0.07
-0.09
-0.11
-0.14
-0.18
-0.2
-0.19
-0.14
-0.12
-0.12
-0.11
-0.12
-0.19
-0.24
-0.27
-0.27
-0.22
-0.22
-0.23
-0.25
-0.27
-0.28
-0.25
-0.22
-0.2
-0.25
-0.26
-0.27
-0.26
-0.24
-0.24
-0.29
-0.29
-0.28
-0.29
-0.25
